LSL_Time,PLUX_P2_nSeq,PLUX_P2_ECG0,PLUX_P2_EMG1,PLUX_P2_EMG2,PLUX_P2_RIP3
6906.0985904264,1589745.0,-0.001979999942705035,0.006180000025779009,-0.011260000057518482,-8.331000328063965
6906.099590198322,1589746.0,-0.001979999942705035,-0.0020000000949949026,-0.008580000139772892,-8.324999809265137
6906.100589970245,1589747.0,-0.0012600000482052565,-0.002630000002682209,-0.005179999861866236,-8.300999641418457
6906.101589742168,1589748.0,-0.0016199999954551458,0.003809999907389283,0.002360000042244792,-8.303999900817871
6906.10258951409,1589749.0,-0.0008999999845400453,-0.0029100000392645597,0.003809999907389283,-8.281000137329102
6906.103589286013,1589750.0,-0.0006699999794363976,-0.0022700000554323196,-0.0030400000978261232,-8.281999588012695
6906.104589057936,1589751.0,-0.0008999999845400453,-0.00041000000783242285,-0.0063599999994039536,-8.258000373840332
6906.105588829859,1589752.0,-0.0016199999954551458,-0.004900000058114529,0.000910000002477318,-8.234000205993652
6906.106588601781,1589753.0,-0.0020699999295175076,-0.003000000026077032,-0.000539999979082495,-8.26099967956543
6906.107588373704,1589754.0,-0.0017099999822676182,0.0062699997797608376,-0.0010900000343099236,-8.234000205993652
6906.108588145627,1589755.0,-0.00044999999227002263,-0.003719999920576811,-0.0013599999947473407,-8.227999687194824
6906.10958791755,1589756.0,-0.00018000000272877514,0.005270000081509352,0.005270000081509352,-8.20300006866455
6906.110587689473,1589757.0,-9.000000136438757e-05,0.0003600000054575503,0.006490000057965517,-8.21500015258789
6906.111587461395,1589758.0,0.00018000000272877514,-0.0027199999894946814,-0.002360000042244792,-8.196999549865723
6906.112587233318,1589759.0,0.0008999999845400453,0.0020000000949949026,0.004999999888241291,-8.1850004196167
6906.11358700524,1589760.0,0.00018000000272877514,0.0027199999894946814,0.005810000002384186,-8.15999984741211
6906.114586777164,1589761.0,0.00018000000272877514,-0.006539999973028898,0.0008200000156648457,-8.147000312805176
6906.115586549086,1589762.0,-0.000539999979082495,0.003809999907389283,-0.00018000000272877514,-8.14799976348877
6906.116586321009,1589763.0,-0.0012600000482052565,-0.001820000004954636,-0.006180000025779009,-8.14799976348877
6906.117586092932,1589764.0,-0.0008999999845400453,-0.005539999809116125,-0.003949999809265137,-8.050999641418457
6906.118585864854,1589765.0,0.0013500000350177288,0.001449999981559813,-0.010259999893605709,-8.119000434875488
6906.119585636778,1589766.0,0.001979999942705035,0.0031799999997019768,-0.007449999917298555,-8.107000350952148
6906.1205854087,1589767.0,0.0008999999845400453,-0.003809999907389283,-0.00839999970048666,-8.098999977111816
6906.121585180623,1589768.0,0.0013500000350177288,0.003449999960139394,-0.006490000057965517,-8.09000015258789
6906.122584952545,1589769.0,0.002520000096410513,-0.0022700000554323196,0.00571999978274107,-8.062999725341797
6906.123584724468,1589770.0,0.003860000055283308,-0.004040000028908253,-0.0006799999973736703,-8.057999610900879
6906.1245844963905,1589771.0,0.0028800000436604023,-0.001449999981559813,0.0017300000181421638,-8.031000137329102
6906.125584268314,1589772.0,0.00039999998989515007,0.0010000000474974513,0.007269999943673611,-8.041000366210938
6906.126584040237,1589773.0,-0.0012600000482052565,-0.005090000107884407,0.005630000028759241,-8.02299976348877
6906.127583812159,1589774.0,-0.00107999995816499,0.004360000137239695,0.0016299999551847577,-8.022000312805176
6906.128583584082,1589775.0,0.0007200000109151006,0.0,-0.003719999920576811,-8.001999855041504
6906.129583356005,1589776.0,0.0021100000012665987,-0.003269999986514449,-0.003000000026077032,-7.989999771118164
6906.130583127928,1589777.0,0.004579999949783087,0.003449999960139394,-0.009170000441372395,-7.986000061035156
6906.13158289985,1589778.0,0.006649999879300594,0.003449999960139394,-0.012900000438094139,-7.982999801635742
6906.132582671773,1589779.0,0.007639999967068434,-0.0007699999841861427,-0.0029100000392645597,-7.965000152587891
6906.133582443696,1589780.0,0.008799999952316284,-0.002360000042244792,0.00044999999227002263,-7.943999767303467
6906.134582215618,1589781.0,0.01095999963581562,-0.00418000016361475,0.002589999930933118,-7.938000202178955
6906.135581987542,1589782.0,0.011680000461637974,-0.00418000016361475,-0.001769999973475933,-7.934999942779541
6906.136581759464,1589783.0,0.012040000408887863,-0.003449999960139394,0.0012700000079348683,-7.915999889373779
6906.137581531387,1589784.0,0.010780000127851963,-0.0007300000288523734,0.0013599999947473407,-7.880000114440918
6906.138581303309,1589785.0,0.008799999952316284,0.0019099999917671084,-0.00031999999191612005,-7.894999980926514
6906.139581075232,1589786.0,0.008539999835193157,-0.000910000002477318,0.002360000042244792,-7.880000114440918
6906.140580847155,1589787.0,0.010060000233352184,-0.001180000021122396,0.006579999811947346,-7.863999843597412
6906.141580619078,1589788.0,0.010329999960958958,-0.0036800000816583633,-0.0008200000156648457,-7.861000061035156
6906.142580391001,1589789.0,0.0053900000639259815,-0.0020000000949949026,-0.0076299998909235,-7.855000019073486
6906.143580162923,1589790.0,-0.00018000000272877514,-9.000000136438757e-05,-0.0030900000128895044,-7.8429999351501465
6906.144579934846,1589791.0,-0.0027000000700354576,-0.003449999960139394,-0.006899999920278788,-7.830999851226807
6906.145579706768,1589792.0,-0.0027000000700354576,-0.006680000107735395,-0.0020000000949949026,-7.818999767303467
6906.146579478692,1589793.0,-0.0023399998899549246,0.004540000110864639,0.000910000002477318,-7.802999973297119
6906.147579250614,1589794.0,-0.000539999979082495,0.0027199999894946814,-0.002360000042244792,-7.788000106811523
6906.148579022537,1589795.0,0.0006300000241026282,-0.002360000042244792,-0.014530000276863575,-7.7769999504089355
6906.14957879446,1589796.0,0.00107999995816499,-0.004040000028908253,-0.00880999956279993,-7.7729997634887695
6906.150578566382,1589797.0,9.000000136438757e-05,-0.008170000277459621,0.005450000055134296,-7.738999843597412
6906.151578338306,1589798.0,-9.000000136438757e-05,0.003809999907389283,0.007809999864548445,-7.7210001945495605
6906.152578110228,1589799.0,0.000539999979082495,0.000910000002477318,0.0033599999733269215,-7.723999977111816
6906.153577882151,1589800.0,-0.0012100000167265534,0.002090000081807375,0.001449999981559813,-7.692999839782715
6906.154577654073,1589801.0,-0.0027000000700354576,-0.005900000222027302,-0.0019099999917671084,-7.699999809265137
6906.155577425996,1589802.0,-0.0031399999279528856,-0.003449999960139394,0.003949999809265137,-7.691999912261963
6906.1565771979185,1589803.0,-0.004670000169426203,-0.001180000021122396,-0.004900000058114529,-7.690000057220459
6906.157576969842,1589804.0,-0.006829999852925539,0.0030900000128895044,0.002090000081807375,-7.659999847412109
6906.158576741765,1589805.0,-0.008089999668300152,0.0012700000079348683,0.0031799999997019768,-7.642000198364258
6906.159576513687,1589806.0,-0.00800000037997961,0.0024500000290572643,0.002630000002682209,-7.635000228881836
6906.16057628561,1589807.0,-0.006649999879300594,-0.0006799999973736703,9.000000136438757e-05,-7.64300012588501
6906.161576057533,1589808.0,-0.005570000037550926,-0.00418000016361475,-0.006130000110715628,-7.629000186920166
6906.162575829456,1589809.0,-0.0048500001430511475,-0.001449999981559813,-0.004900000058114529,-7.613999843597412
6906.163575601378,1589810.0,-0.003590000094845891,-0.00031999999191612005,0.0010000000474974513,-7.6020002365112305
6906.164575373301,1589811.0,-0.002959999954327941,-0.005630000028759241,-0.004540000110864639,-7.586999893188477
6906.165575145224,1589812.0,-0.004129999782890081,0.001180000021122396,-0.006990000139921904,-7.580999851226807
6906.166574917146,1589813.0,-0.004989999812096357,0.0006799999973736703,-0.0030900000128895044,-7.571000099182129
6906.16757468907,1589814.0,-0.002959999954327941,-0.0025400000158697367,0.001820000004954636,-7.52400016784668
6906.168574460992,1589815.0,-0.0016199999954551458,0.002090000081807375,0.0024999999441206455,-7.526000022888184
6906.169574232915,1589816.0,-0.000539999979082495,-0.003449999960139394,-0.0015399999683722854,-7.538000106811523
6906.170574004837,1589817.0,-0.0008099999977275729,-0.00418000016361475,0.0012700000079348683,-7.504000186920166
6906.17157377676,1589818.0,-0.0016199999954551458,-0.003809999907389283,-0.00044999999227002263,-7.510000228881836
6906.172573548683,1589819.0,-0.0037700000684708357,-0.001180000021122396,-0.0052200001664459705,-7.486000061035156
6906.173573320606,1589820.0,-0.00547999981790781,0.003269999986514449,-0.0012700000079348683,-7.482999801635742
6906.174573092529,1589821.0,-0.005210000090301037,0.0020000000949949026,-0.004629999864846468,-7.458000183105469
6906.175572864451,1589822.0,-0.0012600000482052565,-0.0027199999894946814,-0.004809999838471413,-7.448999881744385
6906.176572636374,1589823.0,0.0037700000684708357,-0.0012700000079348683,-0.007079999893903732,-7.454999923706055
6906.177572408296,1589824.0,0.008179999887943268,-0.007040000054985285,-0.000539999979082495,-7.420000076293945
6906.17857218022,1589825.0,0.011769999749958515,-0.00018000000272877514,-0.001820000004954636,-7.421999931335449
6906.179571952142,1589826.0,0.01348000019788742,-0.0024999999441206455,-0.004769999999552965,-7.4039998054504395
6906.180571724065,1589827.0,0.0142000000923872,-0.003539999946951866,-0.004629999864846468,-7.383999824523926
6906.181571495988,1589828.0,0.013030000030994415,0.0019099999917671084,0.0010000000474974513,-7.367000102996826
6906.18257126791,1589829.0,0.00773000018671155,0.005900000222027302,-0.00798999983817339,-7.361000061035156
6906.183571039834,1589830.0,0.0006300000241026282,-0.003539999946951866,-0.006719999946653843,-7.3460001945495605
6906.184570811756,1589831.0,-0.007369999773800373,-0.005270000081509352,-0.0019099999917671084,-7.3460001945495605
6906.185570583679,1589832.0,-0.011769999749958515,-0.005090000107884407,0.0016299999551847577,-7.309000015258789
6906.186570355601,1589833.0,-0.010239999741315842,0.004310000222176313,0.0016299999551847577,-7.290999889373779
6906.187570127524,1589834.0,-0.008179999887943268,0.0002699999895412475,0.006089999806135893,-7.288000106811523
6906.188569899447,1589835.0,-0.007009999826550484,0.0015399999683722854,0.0025400000158697367,-7.275000095367432
6906.18956967137,1589836.0,-0.006200000178068876,0.005270000081509352,0.002090000081807375,-7.275000095367432
6906.190569443293,1589837.0,-0.006289999932050705,-0.0031799999997019768,0.0,-7.264999866485596
6906.191569215215,1589838.0,-0.00674000009894371,-0.004089999943971634,0.003449999960139394,-7.239999771118164
6906.192568987138,1589839.0,-0.00800000037997961,0.0033199999015778303,0.0015399999683722854,-7.21999979019165
6906.193568759061,1589840.0,-0.008179999887943268,-0.0007300000288523734,-0.0033199999015778303,-7.232999801635742
6906.194568530984,1589841.0,-0.00646999990567565,0.003449999960139394,-0.0019099999917671084,-7.198999881744385
6906.195568302906,1589842.0,-0.005710000172257423,-0.0016299999551847577,-0.000539999979082495,-7.182000160217285
6906.196568074829,1589843.0,-0.005570000037550926,-0.0036299999337643385,-0.00267999991774559,-7.181000232696533
6906.197567846752,1589844.0,-0.005929999984800816,0.00041000000783242285,-0.0010400000028312206,-7.165999889373779
6906.198567618674,1589845.0,-0.004089999943971634,-0.0003600000054575503,-0.00798999983817339,-7.146999835968018
6906.199567390598,1589846.0,-0.0016199999954551458,-0.0007300000288523734,-0.005040000192821026,-7.146999835968018
6906.20056716252,1589847.0,-0.00215999991632998,-0.0003600000054575503,-0.006990000139921904,-7.118000030517578
6906.201566934443,1589848.0,-0.0023399998899549246,0.0024500000290572643,-0.005270000081509352,-7.123000144958496
6906.202566706365,1589849.0,-0.0025599999353289604,-0.0017300000181421638,0.004720000084489584,-7.09499979019165
6906.203566478288,1589850.0,-0.0017999999690800905,0.0031300000846385956,-0.0022299999836832285,-7.091000080108643
6906.204566250211,1589851.0,-0.00039999998989515007,-0.003449999960139394,-0.001180000021122396,-7.077000141143799
6906.205566022134,1589852.0,0.0013500000350177288,-0.006810000166296959,0.003000000026077032,-7.050000190734863
6906.206565794057,1589853.0,0.0015300000086426735,-0.0016299999551847577,0.004900000058114529,-7.047999858856201
6906.207565565979,1589854.0,0.000539999979082495,0.004269999917596579,0.0016299999551847577,-7.031000137329102
6906.208565337902,1589855.0,0.0002699999895412475,0.0027199999894946814,0.0017300000181421638,-7.006999969482422
6906.209565109824,1589856.0,3.9999998989515007e-05,-0.0016299999551847577,-0.0030900000128895044,-7.130000114440918
6906.210564881748,1589857.0,-0.001930000027641654,-0.00203999993391335,0.001449999981559813,-6.986999988555908
6906.21156465367,1589858.0,-0.0027000000700354576,0.0006399999838322401,0.002360000042244792,-6.9730000495910645
6906.212564425593,1589859.0,-0.002520000096410513,-0.004269999917596579,-0.0013599999947473407,-6.97599983215332
6906.213564197516,1589860.0,-0.00215999991632998,-0.002360000042244792,-0.008170000277459621,-6.958000183105469
6906.214563969439,1589861.0,-0.0026499999221414328,-0.0019499999471008778,-0.013530000112950802,-6.932000160217285
6906.215563741362,1589862.0,-0.0034099998883903027,-0.005270000081509352,-0.007079999893903732,-6.923999786376953
6906.216563513284,1589863.0,-0.004670000169426203,-0.0002300000051036477,0.004629999864846468,-6.8979997634887695
6906.217563285207,1589864.0,-0.004490000195801258,0.003000000026077032,-0.0007300000288523734,-6.9029998779296875
6906.218563057129,1589865.0,-0.004129999782890081,-0.003449999960139394,0.0007300000288523734,-6.866000175476074
6906.219562829052,1589866.0,-0.004399999976158142,-0.0030400000978261232,0.0013599999947473407,-6.861999988555908
6906.220562600975,1589867.0,-0.0037700000684708357,-0.00535999983549118,-0.00803999975323677,-6.849999904632568
6906.221562372898,1589868.0,-0.00279000005684793,0.0012700000079348683,-0.0062699997797608376,-6.854000091552734
6906.222562144821,1589869.0,-0.0016199999954551458,0.0002300000051036477,-0.0016299999551847577,-6.839000225067139
6906.223561916743,1589870.0,-0.0021100000012665987,4.999999873689376e-05,-0.004809999838471413,-6.813000202178955
6906.224561688666,1589871.0,-0.00279000005684793,0.0059899999760091305,-0.002630000002682209,-6.804999828338623
6906.225561460589,1589872.0,-0.0034099998883903027,-0.004449999891221523,0.0029100000392645597,-6.781000137329102
6906.226561232512,1589873.0,-0.004129999782890081,-0.004540000110864639,0.0007300000288523734,-6.765999794006348
6906.227561004434,1589874.0,-0.001930000027641654,-0.000539999979082495,0.006089999806135893,-6.75
6906.228560776357,1589875.0,-0.001979999942705035,-0.00418000016361475,0.007079999893903732,-6.735000133514404
6906.22956054828,1589876.0,-0.0034099998883903027,0.0016299999551847577,-0.000910000002477318,-6.715000152587891
6906.230560320202,1589877.0,-0.003229999914765358,0.006180000025779009,-0.003590000094845891,-6.739999771118164
6906.231560092126,1589878.0,-0.001979999942705035,-0.0029100000392645597,0.00018000000272877514,-6.689000129699707
6906.232559864048,1589879.0,-0.0008999999845400453,0.0036800000816583633,0.000539999979082495,-6.692999839782715
6906.233559635971,1589880.0,-0.0002699999895412475,-0.005179999861866236,0.004129999782890081,-6.664999961853027
6906.234559407893,1589881.0,0.0012600000482052565,-0.0010400000028312206,0.002360000042244792,-6.6539998054504395
6906.235559179816,1589882.0,0.00279000005684793,-0.0063599999994039536,-0.010259999893605709,-6.678999900817871
6906.236558951739,1589883.0,0.0017999999690800905,-0.004900000058114529,-0.01107999961823225,-6.604000091552734
6906.237558723662,1589884.0,0.0003600000054575503,0.0028200000524520874,-0.006810000166296959,-6.610000133514404
6906.238558495585,1589885.0,-0.0023399998899549246,-0.003000000026077032,-0.005539999809116125,-6.578000068664551
6906.239558267507,1589886.0,-0.004670000169426203,0.0031300000846385956,-0.004540000110864639,-6.572999954223633
6906.24055803943,1589887.0,-0.005929999984800816,0.00418000016361475,0.003220000071451068,-6.572999954223633
6906.241557811352,1589888.0,-0.004939999897032976,0.005040000192821026,0.0030900000128895044,-6.539999961853027
6906.242557583276,1589889.0,-0.0033199999015778303,-0.002630000002682209,-0.0027199999894946814,-6.533999919891357
6906.243557355198,1589890.0,-0.0026100000832229853,-0.002589999930933118,-0.008539999835193157,-6.531000137329102
6906.244557127121,1589891.0,-0.002520000096410513,-0.0011399999493733048,-0.0012700000079348683,-6.508999824523926
6906.245556899044,1589892.0,-0.0030499999411404133,0.0002699999895412475,0.0021800000686198473,-6.48799991607666
6906.246556670967,1589893.0,-0.0034099998883903027,-0.004809999838471413,0.003220000071451068,-6.459000110626221
6906.24755644289,1589894.0,-0.0034099998883903027,-0.000910000002477318,0.006719999946653843,-6.451000213623047
6906.248556214812,1589895.0,-0.004129999782890081,-0.001820000004954636,0.003860000055283308,-6.447999954223633
6906.249555986735,1589896.0,-0.004129999782890081,-0.005270000081509352,-0.004720000084489584,-6.4120001792907715
6906.250555758657,1589897.0,-0.0033199999015778303,0.00571999978274107,0.0028200000524520874,-6.4070000648498535
6906.25155553058,1589898.0,-0.0027000000700354576,-0.003269999986514449,-0.00018000000272877514,-6.4120001792907715
6906.252555302503,1589899.0,-0.0021100000012665987,-0.0063599999994039536,-0.006990000139921904,-6.419000148773193
6906.253555074426,1589900.0,-0.000539999979082495,-0.001449999981559813,-0.003000000026077032,-6.386000156402588
6906.254554846349,1589901.0,0.000539999979082495,0.0010000000474974513,0.00044999999227002263,-6.339000225067139
6906.255554618271,1589902.0,0.001979999942705035,0.00018000000272877514,-0.004540000110864639,-6.36299991607666
6906.256554390194,1589903.0,0.003229999914765358,0.0033599999733269215,-0.000910000002477318,-6.386000156402588
6906.257554162117,1589904.0,0.00279000005684793,-0.006089999806135893,0.0029100000392645597,-6.315999984741211
6906.25855393404,1589905.0,0.0002699999895412475,-0.002859999891370535,-0.0025400000158697367,-6.293000221252441
6906.259553705962,1589906.0,-0.0026499999221414328,-0.004540000110864639,0.002360000042244792,-6.269999980926514
6906.260553477885,1589907.0,-0.00547999981790781,0.001449999981559813,0.007449999917298555,-6.2729997634887695
6906.261553249808,1589908.0,-0.00773000018671155,-0.004809999838471413,-0.0019099999917671084,-6.25
6906.26255302173,1589909.0,-0.009159999899566174,-0.003000000026077032,-0.0012700000079348683,-6.2129998207092285
6906.263552793654,1589910.0,-0.009519999846816063,0.002090000081807375,0.0012700000079348683,-6.206999778747559
6906.264552565576,1589911.0,-0.012400000356137753,0.001820000004954636,-0.003809999907389283,-6.218999862670898
6906.265552337499,1589912.0,-0.01343000028282404,-0.0029100000392645597,-0.000539999979082495,-6.2270002365112305
6906.266552109421,1589913.0,-0.01348000019788742,-0.006990000139921904,0.004629999864846468,-6.164999961853027
6906.267551881345,1589914.0,-0.012889999896287918,-0.006089999806135893,-0.005630000028759241,-6.181000232696533
6906.268551653267,1589915.0,-0.01181000005453825,0.004769999999552965,-0.004900000058114529,-6.175000190734863
6906.26955142519,1589916.0,-0.011680000461637974,-0.000910000002477318,-0.0003600000054575503,-6.144999980926514
6906.270551197113,1589917.0,-0.012310000136494637,0.001449999981559813,-0.00418000016361475,-6.119999885559082
6906.271550969035,1589918.0,-0.013030000030994415,0.00018000000272877514,-0.006180000025779009,-6.104000091552734
6906.272550740958,1589919.0,-0.012040000408887863,-0.005810000002384186,-0.005450000055134296,-6.104000091552734
6906.273550512881,1589920.0,-0.011500000022351742,-0.004269999917596579,-0.005810000002384186,-6.058000087738037
6906.274550284804,1589921.0,-0.010599999688565731,0.0027199999894946814,-0.004310000222176313,-6.02400016784668
6906.275550056726,1589922.0,-0.009879999794065952,-0.001769999973475933,0.000539999979082495,-6.014999866485596
6906.276549828649,1589923.0,-0.009159999899566174,0.0012700000079348683,0.004720000084489584,-6.008999824523926
6906.277549600572,1589924.0,-0.010060000233352184,0.004769999999552965,0.004269999917596579,-6.0289998054504395
6906.278549372495,1589925.0,-0.009879999794065952,-0.007079999893903732,-0.00418000016361475,-5.991000175476074
6906.279549144418,1589926.0,-0.01095999963581562,0.0017300000181421638,0.005040000192821026,-5.984000205993652
6906.28054891634,1589927.0,-0.011769999749958515,0.000910000002477318,0.0009500000160187483,-5.974999904632568
6906.281548688263,1589928.0,-0.011140000075101852,-0.003590000094845891,-0.00044999999227002263,-5.956999778747559
6906.282548460185,1589929.0,-0.010599999688565731,-0.0010000000474974513,0.004000000189989805,-5.939000129699707
6906.283548232108,1589930.0,-0.010739999823272228,0.0024500000290572643,0.003220000071451068,-5.895999908447266
6906.284548004031,1589931.0,-0.009429999627172947,-0.0036299999337643385,-0.004720000084489584,-5.9019999504089355
6906.285547775954,1589932.0,-0.00773000018671155,0.00018000000272877514,-0.0025400000158697367,-5.881999969482422
6906.286547547877,1589933.0,-0.005030000116676092,-0.003449999960139394,0.004360000137239695,-5.861999988555908
6906.287547319799,1589934.0,-0.0034099998883903027,-0.004999999888241291,-0.0027199999894946814,-5.859000205993652
6906.288547091722,1589935.0,-0.0013500000350177288,-0.0020000000949949026,0.0028200000524520874,-5.810999870300293
6906.289546863645,1589936.0,-0.00018000000272877514,0.00418000016361475,0.0021800000686198473,-5.816999912261963
6906.290546635568,1589937.0,0.0008999999845400453,0.004540000110864639,0.002360000042244792,-5.822999954223633
6906.29154640749,1589938.0,0.0017999999690800905,0.005770000163465738,0.002859999891370535,-5.795000076293945
6906.292546179413,1589939.0,0.004040000028908253,-0.004809999838471413,0.003909999970346689,-5.763000011444092
6906.293545951336,1589940.0,0.004490000195801258,0.000539999979082495,-0.003220000071451068,-5.718999862670898
6906.294545723258,1589941.0,0.00547999981790781,-0.005489999894052744,-0.0027199999894946814,-5.730999946594238
6906.295545495182,1589942.0,0.007189999800175428,0.0010900000343099236,-0.0015399999683722854,-5.745999813079834
6906.296545267104,1589943.0,0.007819999940693378,0.0003600000054575503,-0.0072200000286102295,-5.684999942779541
6906.297545039027,1589944.0,0.006779999937862158,-0.007540000136941671,-0.01071999967098236,-5.7220001220703125
6906.298544810949,1589945.0,0.0048500001430511475,0.006130000110715628,-0.011350000277161598,-5.706999778747559
6906.299544582873,1589946.0,0.0015300000086426735,0.004449999891221523,-0.004310000222176313,-5.638000011444092
6906.300544354795,1589947.0,-0.0016199999954551458,0.0006799999973736703,-0.004999999888241291,-5.6579999923706055
6906.301544126718,1589948.0,-0.0026100000832229853,-0.007040000054985285,-0.003449999960139394,-5.697999954223633
6906.302543898641,1589949.0,-0.0027000000700354576,-0.00535999983549118,0.005270000081509352,-5.593999862670898
6906.303543670563,1589950.0,-0.0015300000086426735,0.0003600000054575503,0.009259999729692936,-5.585000038146973
6906.304543442486,1589951.0,-0.00022000000171829015,-0.003809999907389283,0.003809999907389283,-5.559999942779541
6906.305543214409,1589952.0,0.0,-0.007180000189691782,0.006089999806135893,-5.581999778747559
6906.306542986332,1589953.0,-0.000539999979082495,0.0013599999947473407,-0.0008200000156648457,-5.507999897003174
6906.307542758254,1589954.0,-0.0008099999977275729,0.00494999997317791,-0.003220000071451068,-5.52400016784668
6906.308542530177,1589955.0,0.000539999979082495,0.003949999809265137,0.001180000021122396,-5.479000091552734
6906.3095423020995,1589956.0,0.0016199999954551458,-0.004089999943971634,-0.004809999838471413,-5.5269999504089355
6906.310542074023,1589957.0,0.0028800000436604023,-0.004540000110864639,-0.006719999946653843,-5.520999908447266
6906.311541845946,1589958.0,0.0028800000436604023,-0.004769999999552965,0.000539999979082495,-5.438000202178955
6906.312541617868,1589959.0,0.0028800000436604023,-0.006130000110715628,0.0,-5.434999942779541
6906.313541389791,1589960.0,0.002520000096410513,-0.000910000002477318,-0.002360000042244792,-5.4720001220703125
6906.314541161713,1589961.0,0.001979999942705035,-0.005770000163465738,0.0027199999894946814,-5.4019999504089355
6906.315540933636,1589962.0,0.0023399998899549246,-0.002319999970495701,-0.007540000136941671,-5.388999938964844
6906.316540705559,1589963.0,0.0030499999411404133,-0.0013599999947473407,-0.004040000028908253,-5.353000164031982
6906.317540477482,1589964.0,0.0028800000436604023,0.0036299999337643385,-0.0020000000949949026,-5.343999862670898
6906.318540249405,1589965.0,0.004040000028908253,-0.0033599999733269215,0.004360000137239695,-5.382999897003174
6906.319540021327,1589966.0,0.00646999990567565,-0.001820000004954636,0.007079999893903732,-5.309999942779541
6906.32053979325,1589967.0,0.0064199999906122684,-0.0020000000949949026,0.004999999888241291,-5.315000057220459
6906.321539565173,1589968.0,0.005929999984800816,0.003809999907389283,-0.0027199999894946814,-5.343999862670898
6906.322539337096,1589969.0,0.004310000222176313,-0.004449999891221523,-0.0027199999894946814,-5.313000202178955
6906.323539109018,1589970.0,0.0026100000832229853,-0.0016299999551847577,-0.008990000002086163,-5.285999774932861
6906.324538880941,1589971.0,0.0017999999690800905,0.00571999978274107,-0.004089999943971634,-5.214000225067139
6906.3255386528635,1589972.0,0.002520000096410513,0.001449999981559813,-0.00018000000272877514,-5.214000225067139
6906.326538424786,1589973.0,0.0037700000684708357,-0.0034099998883903027,0.0003600000054575503,-5.202000141143799
6906.32753819671,1589974.0,0.006289999932050705,-0.005539999809116125,-0.006180000025779009,-5.190000057220459
6906.328537968632,1589975.0,0.0071000000461936,0.00014000000373926014,-0.006719999946653843,-5.138000011444092
6906.329537740555,1589976.0,0.008089999668300152,-0.00018000000272877514,-0.006539999973028898,-5.144999980926514
6906.330537512477,1589977.0,0.006870000157505274,-0.004809999838471413,-0.007720000110566616,-5.198999881744385
6906.331537284401,1589978.0,0.0052999998442828655,-0.0020000000949949026,0.003269999986514449,-5.098999977111816
6906.332537056323,1589979.0,0.003949999809265137,0.0010900000343099236,-0.0011399999493733048,-5.068999767303467
6906.333536828246,1589980.0,0.0037700000684708357,0.0017300000181421638,-0.003719999920576811,-5.114999771118164
6906.334536600169,1589981.0,0.0037700000684708357,0.003809999907389283,0.0022299999836832285,-5.084000110626221
6906.335536372091,1589982.0,0.003949999809265137,0.0020000000949949026,0.004040000028908253,-5.084000110626221
6906.336536144014,1589983.0,0.004989999812096357,-0.0021800000686198473,-0.003809999907389283,-4.99399995803833
6906.337535915937,1589984.0,0.00674000009894371,-0.0083600003272295,-0.0020000000949949026,-5.047999858856201
6906.33853568786,1589985.0,0.008179999887943268,0.002360000042244792,-0.00267999991774559,-4.985000133514404
6906.339535459782,1589986.0,0.007369999773800373,-0.004900000058114529,0.0010900000343099236,-4.973999977111816
6906.340535231705,1589987.0,0.007009999826550484,-0.00571999978274107,0.003449999960139394,-4.953000068664551
6906.3415350036275,1589988.0,0.005619999952614307,-0.000539999979082495,0.001820000004954636,-4.926000118255615
6906.342534775551,1589989.0,0.0030499999411404133,0.0013200000394135714,0.0006799999973736703,-4.923999786376953
6906.343534547474,1589990.0,0.000539999979082495,0.002360000042244792,-0.005450000055134296,-4.896999835968018
6906.344534319396,1589991.0,-0.0014400000218302011,-0.005770000163465738,-0.0076299998909235,-4.926000118255615
6906.345534091319,1589992.0,-0.0031399999279528856,0.0030900000128895044,-0.0034099998883903027,-4.934999942779541
6906.346533863241,1589993.0,-0.0037700000684708357,0.0007699999841861427,-0.004720000084489584,-4.85699987411499
6906.347533635164,1589994.0,-0.004310000222176313,0.005679999943822622,-0.001820000004954636,-4.870999813079834
6906.348533407087,1589995.0,-0.0033199999015778303,-0.004809999838471413,0.00018000000272877514,-4.836999893188477
6906.34953317901,1589996.0,-0.0012600000482052565,0.002090000081807375,-0.007269999943673611,-4.828000068664551
6906.350532950933,1589997.0,0.0016199999954551458,0.000910000002477318,-0.004809999838471413,-4.784999847412109
6906.351532722855,1589998.0,0.003229999914765358,-0.006539999973028898,0.004540000110864639,-4.742000102996826
6906.352532494779,1589999.0,0.005619999952614307,-0.005630000028759241,-0.0022700000554323196,-4.798999786376953
6906.353532266701,1590000.0,0.007189999800175428,-0.0008200000156648457,-0.004540000110864639,-4.802999973297119
6906.354532038624,1590001.0,0.007280000019818544,0.0027199999894946814,0.00018000000272877514,-4.684000015258789
6906.355531810546,1590002.0,0.008179999887943268,0.0024500000290572643,-0.0007699999841861427,-4.742000102996826
6906.356531582469,1590003.0,0.008799999952316284,-0.0051299999468028545,0.007079999893903732,-4.7129998207092285
6906.3575313543915,1590004.0,0.00795000046491623,-0.0016299999551847577,0.0013599999947473407,-4.669000148773193
6906.358531126315,1590005.0,0.006690000183880329,-0.005179999861866236,-0.006219999864697456,-4.663000106811523
6906.359530898238,1590006.0,0.005210000090301037,-0.0020000000949949026,-0.004040000028908253,-4.584000110626221
6906.36053067016,1590007.0,0.004129999782890081,0.0036299999337643385,0.0030900000128895044,-4.6020002365112305
6906.361530442083,1590008.0,0.0030499999411404133,-0.0063599999994039536,-0.002589999930933118,-4.584000110626221
6906.362530214005,1590009.0,0.0023399998899549246,-0.004540000110864639,-0.005630000028759241,-4.5320000648498535
6906.363529985929,1590010.0,0.0008999999845400453,0.004089999943971634,-0.006310000084340572,-4.510000228881836
6906.364529757851,1590011.0,0.00018000000272877514,-0.005489999894052744,-0.0031799999997019768,-4.5289998054504395
6906.365529529774,1590012.0,-0.0008099999977275729,-0.000910000002477318,-0.0016299999551847577,-4.566999912261963
6906.366529301697,1590013.0,-0.0028800000436604023,-0.0012700000079348683,-0.00018000000272877514,-4.519999980926514
6906.367529073619,1590014.0,-0.0048500001430511475,-0.006180000025779009,-0.004089999943971634,-4.546999931335449
6906.368528845542,1590015.0,-0.006289999932050705,0.0033599999733269215,0.00418000016361475,-4.498000144958496
6906.369528617465,1590016.0,-0.007639999967068434,0.0028200000524520874,0.0027199999894946814,-4.448999881744385
6906.370528389388,1590017.0,-0.008449999615550041,-0.0016299999551847577,0.003909999970346689,-4.413000106811523
6906.37152816131,1590018.0,-0.00773000018671155,-0.003269999986514449,0.00571999978274107,-4.455999851226807
6906.372527933233,1590019.0,-0.008449999615550041,0.0013200000394135714,-0.0021800000686198473,-4.385000228881836
6906.3735277051555,1590020.0,-0.008980000391602516,-0.0008200000156648457,0.000910000002477318,-4.427999973297119
6906.374527477079,1590021.0,-0.00872000027447939,-0.004900000058114529,-0.002630000002682209,-4.38700008392334
6906.375527249002,1590022.0,-0.008539999835193157,-0.00018000000272877514,-0.008129999972879887,-4.300000190734863
6906.376527020924,1590023.0,-0.007819999940693378,-0.008670000359416008,-0.0059899999760091305,-4.321000099182129
6906.377526792847,1590024.0,-0.006829999852925539,-0.000859999970998615,-0.0036299999337643385,-4.3429999351501465
6906.378526564769,1590025.0,-0.004490000195801258,0.004269999917596579,0.004720000084489584,-4.25
6906.379526336692,1590026.0,-0.003640000009909272,-0.0027199999894946814,-0.004720000084489584,-4.290999889373779
6906.380526108615,1590027.0,-0.004129999782890081,-0.0021299999207258224,-0.0030900000128895044,-4.310999870300293
6906.381525880538,1590028.0,-0.0037700000684708357,0.003809999907389283,0.005859999917447567,-4.2220001220703125
6906.382525652461,1590029.0,-0.003860000055283308,-0.002630000002682209,0.004269999917596579,-4.269000053405762
6906.383525424383,1590030.0,-0.005119999870657921,-0.0022700000554323196,-0.0027199999894946814,-4.150000095367432
6906.384525196307,1590031.0,-0.005210000090301037,-0.004310000222176313,-0.0016299999551847577,-4.244999885559082
6906.385524968229,1590032.0,-0.0037700000684708357,-9.000000136438757e-05,0.00044999999227002263,-4.214000225067139
6906.386524740152,1590033.0,-0.0034099998883903027,-0.0007699999841861427,-0.011169999837875366,-4.186999797821045
6906.387524512074,1590034.0,-0.0027000000700354576,-9.000000136438757e-05,-0.0010000000474974513,-4.098999977111816
6906.388524283997,1590035.0,-0.00107999995816499,0.0025400000158697367,-0.0017300000181421638,-4.138000011444092
6906.3895240559195,1590036.0,-0.0014400000218302011,-0.0015899999998509884,-0.003809999907389283,-4.129000186920166
6906.390523827843,1590037.0,-0.0017999999690800905,0.0020000000949949026,0.002859999891370535,-4.079999923706055
6906.391523599766,1590038.0,-0.0028299998957663774,-0.002630000002682209,0.0021800000686198473,-4.021999835968018
6906.392523371688,1590039.0,-0.003590000094845891,-0.0005000000237487257,-0.0008200000156648457,-4.014999866485596
6906.393523143611,1590040.0,-0.004490000195801258,-0.0027199999894946814,0.007079999893903732,-4.033999919891357
6906.394522915533,1590041.0,-0.006289999932050705,-0.005630000028759241,-0.002630000002682209,-3.946000099182129
6906.395522687457,1590042.0,-0.00674000009894371,0.0010900000343099236,-0.0036299999337643385,-3.9690001010894775
6906.396522459379,1590043.0,-0.007639999967068434,-0.0022700000554323196,0.003860000055283308,-3.9089999198913574
6906.397522231302,1590044.0,-0.008980000391602516,-0.00418000016361475,-0.0005000000237487257,-3.881999969482422
6906.398522003225,1590045.0,-0.011680000461637974,0.004410000052303076,-0.0006399999838322401,-3.864000082015991
6906.399521775147,1590046.0,-0.01343000028282404,0.0013599999947473407,0.0030900000128895044,-3.8910000324249268
6906.40052154707,1590047.0,-0.015990000218153,-0.002090000081807375,-0.0016299999551847577,-3.9670000076293945
6906.401521318993,1590048.0,-0.020659999921917915,-0.005539999809116125,-0.0025400000158697367,-3.809000015258789
6906.402521090916,1590049.0,-0.025520000606775284,0.004449999891221523,0.0063599999994039536,-3.8359999656677246
6906.403520862838,1590050.0,-0.02928999997675419,-0.0021800000686198473,0.002950000111013651,-3.882999897003174
6906.404520634761,1590051.0,-0.03027999959886074,-0.0059899999760091305,0.004999999888241291,-3.8510000705718994
6906.405520406684,1590052.0,-0.032430000603199005,-0.0019099999917671084,0.001180000021122396,-3.7950000762939453
6906.406520178607,1590053.0,-0.032839998602867126,0.000539999979082495,-9.000000136438757e-05,-3.7249999046325684
6906.40751995053,1590054.0,-0.03206999972462654,0.0010900000343099236,-0.004540000110864639,-3.736999988555908
6906.408519722452,1590055.0,-0.029559999704360962,-0.005179999861866236,0.001180000021122396,-3.7249999046325684
6906.409519494375,1590056.0,-0.028839999809861183,-0.0031799999997019768,-0.002360000042244792,-3.6679999828338623
6906.410519266297,1590057.0,-0.030820000916719437,0.000910000002477318,-0.002090000081807375,-3.6619999408721924
6906.411519038221,1590058.0,-0.03260999917984009,-0.0013599999947473407,-0.002409999957308173,-3.6710000038146973
6906.412518810143,1590059.0,-0.03458999842405319,-0.004809999838471413,-0.006089999806135893,-3.7090001106262207
6906.413518582066,1590060.0,-0.03539999946951866,-0.0034099998883903027,-0.006719999946653843,-3.631999969482422
6906.414518353989,1590061.0,-0.03756000101566315,-0.004540000110864639,-0.004540000110864639,-3.687000036239624
6906.415518125911,1590062.0,-0.039170000702142715,0.0027199999894946814,0.004900000058114529,-3.680000066757202
6906.416517897835,1590063.0,-0.038270000368356705,-0.001230000052601099,0.0027199999894946814,-3.625
6906.417517669757,1590064.0,-0.035670001059770584,0.004089999943971634,0.008170000277459621,-3.638000011444092
6906.41851744168,1590065.0,-0.03248000144958496,-0.0027199999894946814,0.0024500000290572643,-3.5220000743865967
6906.419517213602,1590066.0,-0.02703999914228916,-0.004900000058114529,-0.003719999920576811,-3.509999990463257
6906.420516985525,1590067.0,-0.022870000451803207,0.003590000094845891,0.0011399999493733048,-3.490000009536743
6906.4215167574475,1590068.0,-0.019139999523758888,0.0012700000079348683,0.0036800000816583633,-3.444000005722046
6906.422516529371,1590069.0,-0.01720999926328659,-0.0036299999337643385,-0.0016299999551847577,-3.558000087738037
6906.423516301294,1590070.0,-0.016580000519752502,0.004000000189989805,-0.005270000081509352,-3.4519999027252197
6906.424516073216,1590071.0,-0.01800999976694584,0.004360000137239695,0.0036800000816583633,-3.3970000743865967
6906.425515845139,1590072.0,-0.021379999816417694,-0.0025400000158697367,-0.000539999979082495,-3.5
6906.426515617061,1590073.0,-0.025429999455809593,0.0010900000343099236,0.0027199999894946814,-3.4549999237060547
6906.427515388985,1590074.0,-0.027489999309182167,-0.0036299999337643385,0.0007699999841861427,-3.359999895095825
6906.428515160907,1590075.0,-0.029109999537467957,-0.004809999838471413,-0.004679999779909849,-3.305000066757202
6906.42951493283,1590076.0,-0.029419999569654465,-0.0017300000181421638,-0.006490000057965517,-3.319000005722046
6906.430514704753,1590077.0,-0.03139999881386757,0.004000000189989805,-0.0030900000128895044,-3.378000020980835
6906.431514476675,1590078.0,-0.03423000127077103,0.004999999888241291,-0.010169999673962593,-3.253000020980835
6906.432514248598,1590079.0,-0.034049998968839645,-0.0044999998062849045,0.0006799999973736703,-3.25
6906.433514020521,1590080.0,-0.03215999901294708,-0.006630000192672014,0.0025400000158697367,-3.3259999752044678
6906.434513792444,1590081.0,-0.029920000582933426,-0.0029100000392645597,-0.0051299999468028545,-3.234999895095825
6906.435513564366,1590082.0,-0.02928999997675419,-0.006180000025779009,-0.010350000113248825,-3.2709999084472656
6906.436513336289,1590083.0,-0.026280000805854797,0.0022299999836832285,-0.002090000081807375,-3.306999921798706
6906.437513108212,1590084.0,-0.019950000569224358,0.0012700000079348683,0.003449999960139394,-3.240999937057495
6906.438512880135,1590085.0,-0.010420000180602074,-0.00839999970048666,0.004629999864846468,-3.1679999828338623
6906.439512652058,1590086.0,0.0012600000482052565,0.003949999809265137,0.000910000002477318,-3.109999895095825
6906.44051242398,1590087.0,0.010599999688565731,-0.0016299999551847577,0.0029100000392645597,-3.177999973297119
6906.441512195903,1590088.0,0.01841999962925911,-0.006490000057965517,-0.00267999991774559,-3.2139999866485596
6906.442511967825,1590089.0,0.024529999122023582,0.0014100000262260437,-0.004089999943971634,-3.0460000038146973
6906.443511739749,1590090.0,0.030009999871253967,-0.0028200000524520874,9.000000136438757e-05,-3.1679999828338623
6906.444511511671,1590091.0,0.035760000348091125,0.000910000002477318,0.000910000002477318,-3.128000020980835
6906.445511283594,1590092.0,0.04021000117063522,0.0027199999894946814,-0.00571999978274107,-3.0789999961853027
6906.446511055517,1590093.0,0.043310001492500305,0.0022299999836832285,0.006719999946653843,-3.115999937057495
6906.447510827439,1590094.0,0.04276999831199646,-0.004449999891221523,0.003000000026077032,-3.01200008392334
6906.448510599363,1590095.0,0.040789999067783356,-0.0030900000128895044,0.0010900000343099236,-2.936000108718872
6906.449510371285,1590096.0,0.04407000169157982,-0.00798999983817339,-0.000539999979082495,-2.9170000553131104
6906.450510143208,1590097.0,0.050939999520778656,0.003909999970346689,-0.0007300000288523734,-3.000999927520752
6906.45150991513,1590098.0,0.0574599988758564,-0.0033199999015778303,-0.0021800000686198473,-3.0329999923706055
6906.452509687053,1590099.0,0.06249000132083893,0.0012700000079348683,-0.0019499999471008778,-2.8949999809265137
6906.4535094589755,1590100.0,0.064690001308918,0.0016299999551847577,-0.003809999907389283,-2.8499999046325684
6906.454509230899,1590101.0,0.06567999720573425,-0.00803999975323677,0.004720000084489584,-2.936000108718872
6906.455509002822,1590102.0,0.06459999829530716,0.0027199999894946814,0.0003600000054575503,-2.8320000171661377
6906.456508774744,1590103.0,0.06249000132083893,-0.00041000000783242285,-0.0030900000128895044,-2.8289999961853027
6906.457508546667,1590104.0,0.059209998697042465,-0.00535999983549118,0.0029100000392645597,-2.7709999084472656
6906.458508318589,1590105.0,0.057500001043081284,9.000000136438757e-05,-0.000539999979082495,-2.86299991607666
6906.459508090513,1590106.0,0.05785999819636345,0.0031300000846385956,-0.0030900000128895044,-2.884000062942505
6906.460507862435,1590107.0,0.05785999819636345,0.002090000081807375,0.004720000084489584,-2.74399995803833
6906.461507634358,1590108.0,0.05857999995350838,-0.00044999999227002263,0.0,-2.694999933242798
6906.462507406281,1590109.0,0.05956999957561493,-0.00018000000272877514,-0.009259999729692936,-2.6670000553131104
6906.463507178203,1590110.0,0.059119999408721924,0.0027199999894946814,-0.005040000192821026,-2.7939999103546143
6906.464506950126,1590111.0,0.05632999911904335,-0.005270000081509352,-0.009990000165998936,-2.615000009536743
6906.465506722049,1590112.0,0.05251000076532364,-0.0020000000949949026,-0.0063599999994039536,-2.6600000858306885
6906.466506493972,1590113.0,0.04771000146865845,-0.003000000026077032,0.001180000021122396,-2.6019999980926514
6906.467506265894,1590114.0,0.04295000061392784,-0.000859999970998615,-0.0027199999894946814,-2.6540000438690186
6906.468506037817,1590115.0,0.03943999856710434,0.0027199999894946814,-0.007079999893903732,-2.671999931335449
6906.46950580974,1590116.0,0.03584999963641167,-0.002589999930933118,0.002360000042244792,-2.5799999237060547
6906.470505581663,1590117.0,0.03215999901294708,-0.0024500000290572643,0.002360000042244792,-2.678999900817871
6906.471505353586,1590118.0,0.029419999569654465,-0.0012700000079348683,-0.003909999970346689,-2.505000114440918
6906.472505125508,1590119.0,0.027400000020861626,-0.005090000107884407,0.0036299999337643385,-2.63100004196167
6906.473504897431,1590120.0,0.024709999561309814,0.003809999907389283,0.01071999967098236,-2.5820000171661377
6906.474504669353,1590121.0,0.021740000694990158,-0.004540000110864639,0.0021800000686198473,-2.5510001182556152
6906.475504441277,1590122.0,0.017430000007152557,0.0006799999973736703,-0.008899999782443047,-2.4660000801086426
6906.476504213199,1590123.0,0.011500000022351742,-0.001449999981559813,-0.007449999917298555,-2.434999942779541
6906.477503985122,1590124.0,0.005929999984800816,0.004629999864846468,-0.005539999809116125,-2.427999973297119
6906.478503757045,1590125.0,-0.0009899999713525176,0.0013599999947473407,0.004000000189989805,-2.368000030517578
6906.479503528967,1590126.0,-0.005659999791532755,-0.006579999811947346,0.003909999970346689,-2.3499999046325684
6906.480503300891,1590127.0,-0.009519999846816063,0.0016299999551847577,0.004629999864846468,-2.434999942779541
6906.481503072813,1590128.0,-0.01221999991685152,-0.0006799999973736703,0.00018000000272877514,-2.3440001010894775
6906.482502844736,1590129.0,-0.013749999925494194,-0.004220000002533197,-0.005810000002384186,-2.4110000133514404
6906.483502616658,1590130.0,-0.0142000000923872,-0.002589999930933118,-0.0024500000290572643,-2.434999942779541
6906.484502388581,1590131.0,-0.014379999600350857,-0.004360000137239695,-0.0030900000128895044,-2.380000114440918
6906.4855021605035,1590132.0,-0.01508999988436699,0.0018599999602884054,0.004900000058114529,-2.3389999866485596
6906.486501932427,1590133.0,-0.014469999819993973,-9.000000136438757e-05,0.0063599999994039536,-2.2279999256134033
6906.48750170435,1590134.0,-0.014150000177323818,0.005090000107884407,0.002360000042244792,-2.249000072479248
6906.488501476272,1590135.0,-0.014820000156760216,-0.005900000222027302,0.002360000042244792,-2.3559999465942383
6906.489501248195,1590136.0,-0.0147299999371171,-0.0021800000686198473,-0.0022700000554323196,-2.184000015258789
6906.490501020118,1590137.0,-0.014550000429153442,-0.005450000055134296,0.0030900000128895044,-2.2320001125335693
6906.491500792041,1590138.0,-0.0142000000923872,0.005090000107884407,0.004360000137239695,-2.2639999389648438
6906.492500563963,1590139.0,-0.0129399998113513,0.0,0.0030900000128895044,-2.260999917984009
6906.493500335886,1590140.0,-0.012040000408887863,0.001820000004954636,-0.0016299999551847577,-2.2230000495910645
6906.494500107809,1590141.0,-0.011680000461637974,-0.004720000084489584,-0.0016299999551847577,-2.069000005722046
6906.495499879731,1590142.0,-0.010599999688565731,-0.003449999960139394,-0.006219999864697456,-2.0920000076293945
6906.496499651655,1590143.0,-0.008980000391602516,-0.004000000189989805,-0.003449999960139394,-2.069000005722046
6906.497499423577,1590144.0,-0.00800000037997961,0.002360000042244792,-0.0021299999207258224,-2.0320000648498535
6906.4984991955,1590145.0,-0.007459999993443489,-9.000000136438757e-05,-0.005900000222027302,-2.055000066757202
6906.499498967422,1590146.0,-0.006560000125318766,0.0035000001080334187,-9.000000136438757e-05,-2.005000114440918
6906.500498739345,1590147.0,-0.007009999826550484,-0.002630000002682209,0.003269999986514449,-2.0889999866485596
6906.501498511268,1590148.0,-0.00800000037997961,-0.00535999983549118,0.002360000042244792,-1.9589999914169312
6906.502498283191,1590149.0,-0.00872000027447939,0.003909999970346689,0.00018000000272877514,-2.0450000762939453
6906.503498055114,1590150.0,-0.009700000286102295,-0.00044999999227002263,0.0006399999838322401,-2.069000005722046
6906.504497827036,1590151.0,-0.0088900001719594,-0.004089999943971634,-0.007899999618530273,-1.9420000314712524
6906.505497598959,1590152.0,-0.007860000245273113,-0.0025400000158697367,-0.0017300000181421638,-2.0429999828338623
6906.506497370881,1590153.0,-0.008449999615550041,0.003220000071451068,-0.0006799999973736703,-1.8489999771118164
6906.507497142805,1590154.0,-0.010599999688565731,0.0012700000079348683,-0.0024999999441206455,-2.002000093460083
6906.508496914727,1590155.0,-0.010780000127851963,-0.00014000000373926014,0.0027199999894946814,-1.9470000267028809
6906.50949668665,1590156.0,-0.010239999741315842,-0.0034099998883903027,0.0019099999917671084,-1.9119999408721924
6906.510496458573,1590157.0,-0.010599999688565731,-0.0014100000262260437,-0.0025400000158697367,-1.774999976158142
6906.511496230495,1590158.0,-0.01001999992877245,-0.005450000055134296,-0.00571999978274107,-1.8049999475479126
6906.512496002419,1590159.0,-0.009429999627172947,0.0027199999894946814,0.005770000163465738,-1.9129999876022339
6906.513495774341,1590160.0,-0.008799999952316284,0.002630000002682209,-0.0011399999493733048,-1.7730000019073486
6906.514495546264,1590161.0,-0.008089999668300152,-0.0030900000128895044,0.0002699999895412475,-1.7289999723434448
6906.515495318186,1590162.0,-0.007459999993443489,0.0013599999947473407,0.003449999960139394,-1.6950000524520874
6906.516495090109,1590163.0,-0.007009999826550484,0.0016299999551847577,-0.0022299999836832285,-1.8250000476837158
6906.5174948620315,1590164.0,-0.00674000009894371,-0.007079999893903732,-0.0022700000554323196,-1.7029999494552612
6906.518494633955,1590165.0,-0.007369999773800373,-0.0003600000054575503,0.0030900000128895044,-1.659999966621399
6906.519494405878,1590166.0,-0.007679999805986881,-0.004720000084489584,-0.0030900000128895044,-1.6299999952316284
6906.5204941778,1590167.0,-0.00839999970048666,0.0006399999838322401,-0.0010900000343099236,-1.7239999771118164
6906.521493949723,1590168.0,-0.009159999899566174,0.0036800000816583633,0.0018599999602884054,-1.7489999532699585
6906.522493721646,1590169.0,-0.008980000391602516,0.0007699999841861427,-0.007770000025629997,-1.5410000085830688
6906.523493493569,1590170.0,-0.008799999952316284,-0.0062699997797608376,-0.010449999943375587,-1.6019999980926514
6906.524493265491,1590171.0,-0.009879999794065952,-0.00018000000272877514,-0.00795000046491623,-1.6779999732971191
6906.525493037414,1590172.0,-0.009879999794065952,-0.0014100000262260437,-0.005810000002384186,-1.5410000085830688
6906.526492809337,1590173.0,-0.008089999668300152,0.00418000016361475,-0.0016299999551847577,-1.5410000085830688
6906.527492581259,1590174.0,-0.007009999826550484,0.000539999979082495,0.005270000081509352,-1.4800000190734863
6906.528492353183,1590175.0,-0.006829999852925539,0.0030900000128895044,-0.0019099999917671084,-1.6039999723434448
6906.529492125105,1590176.0,-0.008089999668300152,-0.004220000002533197,-0.004129999782890081,-1.5809999704360962
6906.530491897028,1590177.0,-0.0083600003272295,0.00018000000272877514,-0.0012700000079348683,-1.409999966621399
6906.53149166895,1590178.0,-0.007550000213086605,-0.0030400000978261232,-0.0030900000128895044,-1.5269999504089355
6906.532491440873,1590179.0,-0.00795000046491623,0.0016299999551847577,-0.006810000166296959,-1.562000036239624
6906.533491212796,1590180.0,-0.008449999615550041,-0.0006399999838322401,-0.00018000000272877514,-1.5140000581741333
6906.534490984719,1590181.0,-0.008270000107586384,0.004000000189989805,-0.004540000110864639,-1.5260000228881836
6906.535490756642,1590182.0,-0.007550000213086605,-0.003220000071451068,-0.005179999861866236,-1.3550000190734863
6906.536490528564,1590183.0,-0.004939999897032976,-0.004540000110864639,-0.002319999970495701,-1.343999981880188
6906.537490300487,1590184.0,-0.0022499999031424522,-0.002360000042244792,-0.001180000021122396,-1.2879999876022339
6906.538490072409,1590185.0,-0.00018000000272877514,0.004540000110864639,-0.0008200000156648457,-1.2599999904632568
6906.539489844333,1590186.0,3.9999998989515007e-05,-0.0020000000949949026,-0.0010000000474974513,-1.3669999837875366
6906.540489616255,1590187.0,0.0007600000244565308,0.0017300000181421638,-0.002360000042244792,-1.2209999561309814
6906.541489388178,1590188.0,-0.0002699999895412475,-0.0051299999468028545,0.0013599999947473407,-1.2699999809265137
6906.542489160101,1590189.0,-0.0008099999977275729,-0.003269999986514449,-0.001820000004954636,-1.3029999732971191
6906.543488932023,1590190.0,-0.0022499999031424522,-0.0029100000392645597,-0.0025400000158697367,-1.3489999771118164
6906.544488703947,1590191.0,-0.005750000011175871,0.003809999907389283,0.000910000002477318,-1.3200000524520874
6906.545488475869,1590192.0,-0.007910000160336494,-0.00018000000272877514,-0.000859999970998615,-1.1959999799728394
6906.546488247792,1590193.0,-0.009429999627172947,0.003449999960139394,0.004629999864846468,-1.312000036239624
6906.547488019714,1590194.0,-0.008799999952316284,-0.004089999943971634,0.0008200000156648457,-1.0800000429153442
6906.548487791637,1590195.0,-0.008089999668300152,-0.00418000016361475,-0.003269999986514449,-1.246999979019165
6906.54948756356,1590196.0,-0.006380000151693821,0.004269999917596579,-0.0013599999947473407,-1.222000002861023
6906.550487335483,1590197.0,-0.005929999984800816,-0.00031999999191612005,0.0028200000524520874,-1.0740000009536743
6906.551487107406,1590198.0,-0.00646999990567565,-0.0016299999551847577,-0.0030900000128895044,-1.0190000534057617
6906.552486879328,1590199.0,-0.007910000160336494,0.001820000004954636,0.0013599999947473407,-1.055999994277954
6906.553486651251,1590200.0,-0.008940000087022781,-0.0059899999760091305,0.0059899999760091305,-1.1440000534057617
6906.554486423174,1590201.0,-0.010329999960958958,-0.00418000016361475,-0.005630000028759241,-0.9769999980926514
6906.555486195097,1590202.0,-0.01095999963581562,0.003269999986514449,0.003539999946951866,-0.9639999866485596
6906.556485967019,1590203.0,-0.010739999823272228,-0.0021299999207258224,0.004900000058114529,-1.0529999732971191
6906.557485738942,1590204.0,-0.011099999770522118,0.005450000055134296,-0.003590000094845891,-0.9800000190734863
6906.558485510865,1590205.0,-0.010870000347495079,-0.000539999979082495,-0.0027199999894946814,-0.9660000205039978
6906.559485282787,1590206.0,-0.01001999992877245,-0.0027199999894946814,-0.006630000192672014,-1.0540000200271606
6906.560485054711,1590207.0,-0.0083600003272295,-0.003809999907389283,-0.0014100000262260437,-0.8849999904632568
6906.561484826633,1590208.0,-0.008089999668300152,-0.005630000028759241,-0.008630000054836273,-0.8360000252723694
6906.562484598556,1590209.0,-0.007280000019818544,-0.001230000052601099,-0.000910000002477318,-0.9639999866485596
6906.563484370478,1590210.0,-0.00646999990567565,0.0011399999493733048,0.0020000000949949026,-0.8539999723434448
6906.564484142401,1590211.0,-0.005840000230818987,-0.005450000055134296,-0.00418000016361475,-0.8420000076293945
6906.565483914324,1590212.0,-0.005570000037550926,0.0025400000158697367,0.002090000081807375,-0.9409999847412109
6906.566483686247,1590213.0,-0.005350000225007534,-0.004540000110864639,-0.0021299999207258224,-0.8360000252723694
6906.56748345817,1590214.0,-0.005439999978989363,0.0003600000054575503,0.0021299999207258224,-0.7609999775886536
6906.568483230092,1590215.0,-0.005210000090301037,0.004540000110864639,0.0036800000816583633,-0.7710000276565552
6906.569483002015,1590216.0,-0.005030000116676092,-0.006089999806135893,-0.0002699999895412475,-0.7260000109672546
6906.570482773937,1590217.0,-0.006649999879300594,-0.0017300000181421638,-0.005539999809116125,-0.8650000095367432
6906.571482545861,1590218.0,-0.008799999952316284,-0.001230000052601099,-0.005400000140070915,-0.8539999723434448
6906.572482317783,1590219.0,-0.01095999963581562,0.003590000094845891,0.002090000081807375,-0.796999990940094
6906.573482089706,1590220.0,-0.009879999794065952,-0.0020000000949949026,0.001449999981559813,-0.6769999861717224
6906.574481861629,1590221.0,-0.006560000125318766,-0.006990000139921904,-0.008170000277459621,-0.6029999852180481
6906.575481633552,1590222.0,-0.0037700000684708357,-0.003449999960139394,-0.01071999967098236,-0.652999997138977
6906.576481405475,1590223.0,-0.003010000102221966,0.0016799999866634607,-0.0051299999468028545,-0.7429999709129333
6906.577481177397,1590224.0,-0.0023399998899549246,-9.000000136438757e-05,-0.0008200000156648457,-0.7570000290870667
6906.57848094932,1590225.0,-0.00215999991632998,-0.0010000000474974513,0.0059899999760091305,-0.7260000109672546
6906.579480721242,1590226.0,-0.0034099998883903027,0.0003600000054575503,0.007449999917298555,-0.7099999785423279
6906.580480493165,1590227.0,-0.005030000116676092,-0.0030400000978261232,-0.0006399999838322401,-0.6729999780654907
6906.581480265088,1590228.0,-0.0064199999906122684,-0.003909999970346689,-0.000910000002477318,-0.6869999766349792
6906.582480037011,1590229.0,-0.00610999995842576,0.0029100000392645597,0.0,-0.4580000042915344
6906.583479808934,1590230.0,-0.006289999932050705,-0.000910000002477318,0.000910000002477318,-0.6129999756813049
6906.584479580856,1590231.0,-0.007009999826550484,-0.004040000028908253,0.004769999999552965,-0.49399998784065247
6906.585479352779,1590232.0,-0.007550000213086605,0.003539999946951866,-0.0027199999894946814,-0.47600001096725464
6906.586479124702,1590233.0,-0.007910000160336494,0.002360000042244792,-0.006719999946653843,-0.3970000147819519
6906.587478896625,1590234.0,-0.008799999952316284,-0.0007699999841861427,-0.0027199999894946814,-0.43299999833106995
6906.588478668547,1590235.0,-0.010060000233352184,-0.007449999917298555,0.0002699999895412475,-0.5649999976158142
6906.58947844047,1590236.0,-0.010060000233352184,-0.004360000137239695,0.0036299999337643385,-0.42100000381469727
6906.590478212393,1590237.0,-0.009519999846816063,0.0,0.003590000094845891,-0.38499999046325684
6906.591477984315,1590238.0,-0.008799999952316284,0.001449999981559813,0.0009500000160187483,-0.34200000762939453
6906.592477756239,1590239.0,-0.008449999615550041,-0.001449999981559813,0.0027199999894946814,-0.4819999933242798
6906.593477528161,1590240.0,-0.008449999615550041,0.0016299999551847577,-0.0022700000554323196,-0.2750000059604645
6906.594477300084,1590241.0,-0.007550000213086605,-0.003449999960139394,-0.00418000016361475,-0.3330000042915344
6906.595477072006,1590242.0,-0.006289999932050705,-0.003809999907389283,0.0064500002190470695,-0.3050000071525574
6906.596476843929,1590243.0,-0.006560000125318766,0.0029100000392645597,0.0006799999973736703,-0.38499999046325684
6906.597476615852,1590244.0,-0.006020000204443932,-0.002360000042244792,-0.004129999782890081,-0.41499999165534973
6906.598476387775,1590245.0,-0.004490000195801258,-0.0022700000554323196,0.003000000026077032,-0.2290000021457672
6906.599476159698,1590246.0,-0.0023399998899549246,0.003539999946951866,0.00018000000272877514,-0.21699999272823334
6906.60047593162,1590247.0,-0.000539999979082495,-0.0008200000156648457,-0.000539999979082495,-0.3540000021457672
6906.601475703543,1590248.0,0.0012600000482052565,0.000910000002477318,0.0003600000054575503,-0.210999995470047
6906.602475475465,1590249.0,0.0024300001095980406,-0.0010900000343099236,-0.012760000303387642,-0.17399999499320984
6906.603475247389,1590250.0,0.0023399998899549246,-0.008170000277459621,-0.015990000218153,-0.12399999797344208
6906.604475019311,1590251.0,0.0014400000218302011,-0.00571999978274107,-0.015259999781847,-0.2750000059604645
6906.605474791234,1590252.0,-0.000539999979082495,-0.0012700000079348683,-0.004360000137239695,-0.16500000655651093
6906.606474563157,1590253.0,-0.0030499999411404133,0.005270000081509352,-0.00044999999227002263,-0.08900000154972076
6906.60747433508,1590254.0,-0.005929999984800816,0.002589999930933118,-0.006089999806135893,-0.09000000357627869
6906.608474107003,1590255.0,-0.007860000245273113,-0.001820000004954636,-0.004540000110864639,-0.1889999955892563
6906.609473878925,1590256.0,-0.00800000037997961,-0.002630000002682209,-0.003449999960139394,-0.1679999977350235
6906.610473650848,1590257.0,-0.005840000230818987,-0.004900000058114529,0.0012700000079348683,-0.027000000700354576
6906.61147342277,1590258.0,-0.006560000125318766,-0.0025400000158697367,-9.000000136438757e-05,-0.014000000432133675
6906.612473194693,1590259.0,-0.007230000104755163,0.003449999960139394,0.007269999943673611,-0.0020000000949949026
6906.613472966616,1590260.0,-0.007369999773800373,-9.000000136438757e-05,-0.001180000021122396,0.014000000432133675
6906.614472738539,1590261.0,-0.007459999993443489,-0.002360000042244792,-0.00018000000272877514,0.07599999755620956
6906.615472510462,1590262.0,-0.007459999993443489,0.0002699999895412475,0.007899999618530273,0.054999999701976776
6906.616472282384,1590263.0,-0.008270000107586384,-0.0020000000949949026,0.004000000189989805,0.09799999743700027
6906.617472054307,1590264.0,-0.007910000160336494,0.0016299999551847577,-0.0024500000290572643,0.061000000685453415
6906.61847182623,1590265.0,-0.006920000072568655,0.004769999999552965,-0.0036299999337643385,-0.0430000014603138
6906.619471598153,1590266.0,-0.007369999773800373,-0.0024999999441206455,-0.002090000081807375,-0.017999999225139618
6906.620471370075,1590267.0,-0.00773000018671155,-0.005810000002384186,0.0030900000128895044,0.12200000137090683
6906.621471141998,1590268.0,-0.007590000052005053,-0.003719999920576811,0.003449999960139394,0.20800000429153442
6906.622470913921,1590269.0,-0.007819999940693378,-0.005090000107884407,0.0016299999551847577,0.1589999943971634
6906.623470685843,1590270.0,-0.007679999805986881,0.0059899999760091305,0.0027199999894946814,0.06700000166893005
6906.624470457767,1590271.0,-0.007459999993443489,0.005040000192821026,-0.003269999986514449,0.13699999451637268
6906.625470229689,1590272.0,-0.006560000125318766,-0.0020000000949949026,-0.001449999981559813,0.0989999994635582
6906.626470001612,1590273.0,-0.007009999826550484,-0.006180000025779009,-0.0007300000288523734,0.1080000028014183
6906.627469773534,1590274.0,-0.006920000072568655,-0.004540000110864639,-0.004360000137239695,0.28999999165534973
6906.628469545458,1590275.0,-0.006289999932050705,0.00044999999227002263,-0.004540000110864639,0.2529999911785126
6906.62946931738,1590276.0,-0.006289999932050705,0.003269999986514449,-0.004900000058114529,0.16200000047683716
6906.630469089303,1590277.0,-0.006560000125318766,-0.002360000042244792,0.0021299999207258224,0.3479999899864197
6906.631468861226,1590278.0,-0.007369999773800373,0.0019099999917671084,-0.0021299999207258224,0.3659999966621399
6906.632468633148,1590279.0,-0.007910000160336494,-0.006579999811947346,-0.0030900000128895044,0.2409999966621399
6906.633468405071,1590280.0,-0.008179999887943268,-0.007040000054985285,0.00018000000272877514,0.3479999899864197
6906.634468176994,1590281.0,-0.00773000018671155,0.0033199999015778303,-0.002360000042244792,0.25
6906.635467948917,1590282.0,-0.005929999984800816,0.0008200000156648457,0.003449999960139394,0.4090000092983246
6906.636467720839,1590283.0,-0.004490000195801258,0.0010900000343099236,-0.001449999981559813,0.2669999897480011
6906.637467492762,1590284.0,-0.004399999976158142,0.0020000000949949026,-0.004720000084489584,0.41200000047683716
6906.638467264685,1590285.0,-0.003280000062659383,-0.005630000028759241,-0.0015399999683722854,0.42100000381469727
6906.639467036608,1590286.0,-0.0030499999411404133,-0.00571999978274107,-0.003269999986514449,0.43799999356269836
6906.640466808531,1590287.0,-0.003229999914765358,-0.00031999999191612005,0.0063599999994039536,0.49399998784065247
6906.641466580453,1590288.0,-0.0016199999954551458,0.0028200000524520874,0.003590000094845891,0.4880000054836273
6906.642466352376,1590289.0,-0.0011699999449774623,0.003809999907389283,-0.005270000081509352,0.574999988079071
6906.643466124298,1590290.0,-0.0007200000109151006,0.0,-0.00686000008136034,0.4749999940395355
6906.644465896221,1590291.0,-0.0012600000482052565,-0.005309999920427799,-0.004629999864846468,0.4000000059604645
6906.645465668144,1590292.0,-0.0008999999845400453,-0.0029100000392645597,-0.0076299998909235,0.5709999799728394
6906.646465440067,1590293.0,0.0007200000109151006,0.002950000111013651,-0.0031799999997019768,0.46399998664855957
6906.64746521199,1590294.0,0.0014400000218302011,-0.00044999999227002263,0.0020000000949949026,0.45500001311302185
6906.648464983912,1590295.0,0.0017099999822676182,0.0036299999337643385,-0.005090000107884407,0.5070000290870667
6906.649464755835,1590296.0,0.002469999948516488,-0.0031799999997019768,0.0030900000128895044,0.6159999966621399
6906.650464527758,1590297.0,0.0023399998899549246,-0.004629999864846468,0.0030900000128895044,0.6499999761581421
6906.651464299681,1590298.0,0.002959999954327941,-0.005179999861866236,0.00018000000272877514,0.5230000019073486
6906.652464071603,1590299.0,0.0023399998899549246,0.0024999999441206455,-0.0059899999760091305,0.5429999828338623
6906.653463843526,1590300.0,0.0016199999954551458,-0.004449999891221523,-0.006089999806135893,0.7599999904632568
6906.654463615449,1590301.0,0.0009899999713525176,0.002360000042244792,-0.0015399999683722854,0.6330000162124634
6906.655463387371,1590302.0,0.0,-0.004900000058114529,0.0016299999551847577,0.5799999833106995
6906.656463159295,1590303.0,-0.000539999979082495,-0.0021800000686198473,0.001449999981559813,0.5950000286102295
6906.657462931217,1590304.0,-0.0002699999895412475,-0.00018000000272877514,0.002360000042244792,0.6970000267028809
6906.65846270314,1590305.0,0.0006300000241026282,0.0006399999838322401,0.0030900000128895044,0.7889999747276306
6906.659462475062,1590306.0,0.00044999999227002263,0.0027199999894946814,-0.003449999960139394,0.640999972820282
6906.660462246986,1590307.0,0.00022000000171829015,0.004269999917596579,0.0021299999207258224,0.8149999976158142
6906.661462018908,1590308.0,0.0013000000035390258,-0.003000000026077032,0.0010900000343099236,0.8119999766349792
6906.662461790831,1590309.0,0.0012600000482052565,-0.008670000359416008,-0.002360000042244792,0.8899999856948853
6906.663461562754,1590310.0,-0.0006699999794363976,-0.000910000002477318,-0.002589999930933118,0.8420000076293945
6906.664461334676,1590311.0,-0.004040000028908253,0.0027199999894946814,-0.004809999838471413,0.7289999723434448
6906.665461106599,1590312.0,-0.007009999826550484,-0.005810000002384186,0.00798999983817339,0.9580000042915344
6906.666460878522,1590313.0,-0.007189999800175428,0.006089999806135893,-0.0003600000054575503,0.8730000257492065
6906.667460650445,1590314.0,-0.003949999809265137,0.002859999891370535,-0.003269999986514449,0.796999990940094
6906.668460422367,1590315.0,-0.0013500000350177288,0.0003600000054575503,0.004809999838471413,0.9369999766349792
6906.66946019429,1590316.0,-0.0024300001095980406,0.004999999888241291,-0.0007300000288523734,0.8209999799728394
6906.670459966213,1590317.0,-0.0013899999903514981,-0.0033599999733269215,-0.0014100000262260437,0.9800000190734863
6906.671459738136,1590318.0,-0.0011699999449774623,-0.0027199999894946814,-0.004720000084489584,0.9829999804496765
6906.672459510059,1590319.0,-0.0022899999748915434,0.0020000000949949026,-0.0033599999733269215,0.9869999885559082
6906.673459281981,1590320.0,-0.0033199999015778303,-0.003539999946951866,-0.004809999838471413,1.031000018119812
6906.674459053904,1590321.0,-0.0037700000684708357,-0.0009500000160187483,-0.001820000004954636,0.9020000100135803
6906.675458825826,1590322.0,-0.00215999991632998,0.006089999806135893,0.0016799999866634607,1.1169999837875366
6906.676458597749,1590323.0,-0.0007200000109151006,-0.00418000016361475,-0.0012700000079348683,1.059000015258789
6906.677458369672,1590324.0,0.0009899999713525176,-0.004410000052303076,-0.00880999956279993,1.1510000228881836
6906.678458141595,1590325.0,0.0028800000436604023,0.0030900000128895044,-0.004900000058114529,1.093000054359436
6906.679457913518,1590326.0,0.0034099998883903027,0.000539999979082495,0.006180000025779009,1.0219999551773071
6906.68045768544,1590327.0,0.0035000001080334187,-0.000539999979082495,-0.00041000000783242285,1.1169999837875366
6906.681457457363,1590328.0,0.0048500001430511475,0.0002699999895412475,-0.003949999809265137,1.0190000534057617
6906.682457229286,1590329.0,0.005840000230818987,-0.003269999986514449,-0.0033599999733269215,1.1959999799728394
6906.683457001209,1590330.0,0.0053900000639259815,-0.004540000110864639,-0.010350000113248825,1.0440000295639038
6906.684456773131,1590331.0,0.0052999998442828655,0.0024999999441206455,-0.000910000002477318,1.1929999589920044
6906.685456545054,1590332.0,0.005929999984800816,-0.00267999991774559,0.0016299999551847577,1.2070000171661377
6906.686456316977,1590333.0,0.007009999826550484,0.000910000002477318,-0.0019099999917671084,1.1260000467300415
6906.687456088899,1590334.0,0.0083600003272295,0.004720000084489584,-0.006990000139921904,1.2999999523162842
6906.688455860823,1590335.0,0.00773000018671155,-0.004449999891221523,-0.007079999893903732,1.2389999628067017
6906.689455632745,1590336.0,0.0088900001719594,-0.00418000016361475,0.000539999979082495,1.305999994277954
6906.690455404668,1590337.0,0.007910000160336494,0.004769999999552965,0.002360000042244792,1.340000033378601
6906.69145517659,1590338.0,0.005439999978989363,-0.0025400000158697367,0.0036299999337643385,1.2450000047683716
6906.692454948514,1590339.0,0.004989999812096357,0.000910000002477318,0.009399999864399433,1.3240000009536743
6906.693454720436,1590340.0,0.004540000110864639,-0.001180000021122396,0.004900000058114529,1.2020000219345093
6906.694454492359,1590341.0,0.005210000090301037,-0.004679999779909849,-0.004000000189989805,1.2330000400543213
6906.695454264282,1590342.0,0.0053900000639259815,-0.005270000081509352,0.006579999811947346,1.3819999694824219
6906.696454036204,1590343.0,0.004220000002533197,0.002090000081807375,-0.0034099998883903027,1.3949999809265137
6906.697453808127,1590344.0,0.003860000055283308,-0.00041000000783242285,-0.00031999999191612005,1.4129999876022339
6906.69845358005,1590345.0,0.004310000222176313,0.0019099999917671084,-0.003269999986514449,1.4249999523162842
6906.699453351973,1590346.0,0.006020000204443932,-0.004769999999552965,-0.004360000137239695,1.3029999732971191
6906.700453123895,1590347.0,0.008270000107586384,-0.001180000021122396,0.0020000000949949026,1.5080000162124634
6906.701452895818,1590348.0,0.009519999846816063,-0.0027199999894946814,0.000910000002477318,1.4299999475479126
6906.7024526677405,1590349.0,0.009069999679923058,0.006039999891072512,-0.004679999779909849,1.3309999704360962
6906.703452439664,1590350.0,0.006649999879300594,-0.0030900000128895044,0.0012700000079348683,1.3639999628067017
6906.704452211587,1590351.0,0.003860000055283308,0.002630000002682209,-0.001820000004954636,1.5110000371932983
6906.705451983509,1590352.0,0.0016199999954551458,-0.006130000110715628,-0.005630000028759241,1.5199999809265137
6906.706451755432,1590353.0,0.0012600000482052565,-0.0033599999733269215,-0.00418000016361475,1.3990000486373901
6906.707451527354,1590354.0,0.0030499999411404133,-9.000000136438757e-05,-0.008449999615550041,1.4220000505447388
6906.708451299277,1590355.0,0.004720000084489584,-0.000539999979082495,-0.010350000113248825,1.4220000505447388
6906.7094510712,1590356.0,0.007369999773800373,-0.002950000111013651,-0.00018000000272877514,1.6050000190734863
6906.710450843123,1590357.0,0.010599999688565731,0.004449999891221523,-0.0016299999551847577,1.61899995803833
6906.711450615046,1590358.0,0.012079999782145023,-0.008539999835193157,0.0027199999894946814,1.4800000190734863
6906.712450386968,1590359.0,0.012400000356137753,-0.004310000222176313,0.0006399999838322401,1.6480000019073486
6906.713450158892,1590360.0,0.012849999591708183,-0.003809999907389283,-9.000000136438757e-05,1.715000033378601
6906.714449930814,1590361.0,0.013120000250637531,-0.000539999979082495,0.004540000110864639,1.7029999494552612
6906.715449702737,1590362.0,0.012760000303387642,0.001449999981559813,-0.001820000004954636,1.555999994277954
6906.716449474659,1590363.0,0.01181000005453825,0.002360000042244792,-0.0025400000158697367,1.7489999532699585
6906.717449246582,1590364.0,0.010599999688565731,-0.005810000002384186,0.0012700000079348683,1.715000033378601
6906.7184490185045,1590365.0,0.008630000054836273,-0.0030900000128895044,-0.0020000000949949026,1.656999945640564
6906.719448790428,1590366.0,0.007910000160336494,0.0028200000524520874,0.002409999957308173,1.6330000162124634
6906.720448562351,1590367.0,0.007009999826550484,0.0024500000290572643,0.006039999891072512,1.61899995803833
6906.721448334273,1590368.0,0.006289999932050705,0.0012700000079348683,-0.0019099999917671084,1.7970000505447388
6906.722448106196,1590369.0,0.00547999981790781,0.0015399999683722854,-0.0030900000128895044,1.781999945640564
6906.723447878118,1590370.0,0.0030499999411404133,-0.005630000028759241,0.0029100000392645597,1.690999984741211
6906.724447650042,1590371.0,0.0016199999954551458,-0.006949999835342169,-0.001820000004954636,1.812999963760376
6906.725447421964,1590372.0,9.000000136438757e-05,0.003590000094845891,0.0002699999895412475,1.9040000438690186
6906.726447193887,1590373.0,0.0,0.000910000002477318,0.002090000081807375,1.8569999933242798
6906.72744696581,1590374.0,-9.000000136438757e-05,0.003860000055283308,-0.006630000192672014,1.8519999980926514
6906.728446737732,1590375.0,-0.0003100000030826777,-0.0021800000686198473,-0.01217000000178814,1.7400000095367432
6906.729446509655,1590376.0,0.00107999995816499,-0.003809999907389283,-0.01140000019222498,1.815999984741211
6906.730446281578,1590377.0,0.0012600000482052565,-0.007449999917298555,-0.00018000000272877514,1.7649999856948853
6906.731446053501,1590378.0,0.000539999979082495,0.0017300000181421638,0.0013599999947473407,1.777999997138977
6906.732445825423,1590379.0,0.0002699999895412475,-0.005539999809116125,0.0051299999468028545,1.7990000247955322
6906.733445597346,1590380.0,-0.0012100000167265534,0.0014100000262260437,0.00494999997317791,1.9869999885559082
6906.7344453692685,1590381.0,-0.0012600000482052565,0.003809999907389283,-9.000000136438757e-05,1.968000054359436
6906.735445141192,1590382.0,-0.00018000000272877514,-0.004769999999552965,-0.000910000002477318,1.8420000076293945
6906.736444913115,1590383.0,-0.00013000000035390258,0.0028200000524520874,-0.001230000052601099,2.0139999389648438
6906.737444685037,1590384.0,0.0009899999713525176,-0.003000000026077032,0.0011399999493733048,2.0139999389648438
6906.73844445696,1590385.0,0.0008999999845400453,-0.004860000219196081,0.0028200000524520874,2.0230000019073486
6906.739444228882,1590386.0,0.0006300000241026282,-0.005950000137090683,-0.0030900000128895044,1.9149999618530273
6906.740444000805,1590387.0,0.0006699999794363976,0.004629999864846468,-0.006490000057965517,2.0999999046325684
6906.741443772728,1590388.0,0.0013500000350177288,-0.001230000052601099,-0.0036800000816583633,2.078000068664551
6906.742443544651,1590389.0,0.000539999979082495,0.004540000110864639,-0.0010900000343099236,2.118000030517578
6906.743443316574,1590390.0,9.000000136438757e-05,-0.003269999986514449,-0.00018000000272877514,2.187000036239624
6906.744443088496,1590391.0,-0.0009899999713525176,-0.004900000058114529,0.0027199999894946814,2.1710000038146973
6906.74544286042,1590392.0,-0.0008999999845400453,-0.005270000081509352,-0.0063599999994039536,2.121000051498413
6906.746442632342,1590393.0,-0.0014400000218302011,-0.0010900000343099236,-0.0014100000262260437,2.0169999599456787
6906.747442404265,1590394.0,-0.0027000000700354576,0.004269999917596579,0.004269999917596579,2.246000051498413
6906.748442176187,1590395.0,-0.003590000094845891,0.0028200000524520874,-9.000000136438757e-05,2.203000068664551
6906.74944194811,1590396.0,-0.005169999785721302,-0.00418000016361475,0.0063599999994039536,2.115000009536743
6906.7504417200325,1590397.0,-0.005570000037550926,-0.004540000110864639,0.0020000000949949026,2.0869998931884766
6906.751441491956,1590398.0,-0.005530000198632479,0.0003600000054575503,-0.004000000189989805,2.247999906539917
6906.752441263879,1590399.0,-0.005530000198632479,0.0012700000079348683,-0.007400000002235174,2.2639999389648438
6906.753441035801,1590400.0,-0.005750000011175871,0.0024500000290572643,-0.014530000276863575,2.109999895095825
6906.754440807724,1590401.0,-0.007009999826550484,-0.0002699999895412475,-0.02143000066280365,2.257999897003174
6906.755440579646,1590402.0,-0.008220000192523003,-0.006579999811947346,-0.013620000332593918,2.2769999504089355
6906.75644035157,1590403.0,-0.007639999967068434,-0.007309999782592058,-0.01334999967366457,2.1640000343322754
6906.757440123492,1590404.0,-0.007550000213086605,0.003269999986514449,-0.004310000222176313,2.315999984741211
6906.758439895415,1590405.0,-0.007009999826550484,-0.004089999943971634,0.0071299998089671135,2.374000072479248
6906.759439667338,1590406.0,-0.00800000037997961,-0.00418000016361475,0.007180000189691782,2.194000005722046
6906.76043943926,1590407.0,-0.006829999852925539,0.004410000052303076,0.008539999835193157,2.364000082015991
6906.761439211183,1590408.0,-0.006649999879300594,0.0010000000474974513,0.001449999981559813,2.385999917984009
6906.762438983106,1590409.0,-0.00646999990567565,0.004449999891221523,0.00798999983817339,2.2639999389648438
6906.763438755029,1590410.0,-0.007369999773800373,-0.004360000137239695,0.0027199999894946814,2.434999942779541
6906.764438526951,1590411.0,-0.007009999826550484,0.003269999986514449,0.0012700000079348683,2.443000078201294
6906.765438298874,1590412.0,-0.006829999852925539,0.000539999979082495,-0.003590000094845891,2.315999984741211
6906.766438070797,1590413.0,-0.00547999981790781,-0.0022299999836832285,0.006719999946653843,2.3010001182556152
6906.76743784272,1590414.0,-0.0047599999234080315,-0.004089999943971634,0.004089999943971634,2.4600000381469727
6906.768437614643,1590415.0,-0.005030000116676092,-0.003809999907389283,-0.002090000081807375,2.3440001010894775
6906.769437386565,1590416.0,-0.0053900000639259815,0.0007300000288523734,-0.005450000055134296,2.4800000190734863
6906.770437158488,1590417.0,-0.005840000230818987,-0.003909999970346689,-0.010259999893605709,2.5179998874664307
6906.77143693041,1590418.0,-0.007009999826550484,0.0010900000343099236,-0.005630000028759241,2.5269999504089355
6906.772436702334,1590419.0,-0.00773000018671155,-0.005270000081509352,0.00018000000272877514,2.4749999046325684
6906.773436474256,1590420.0,-0.007910000160336494,-0.005489999894052744,0.00018000000272877514,2.4230000972747803
6906.774436246179,1590421.0,-0.00773000018671155,-0.004360000137239695,-0.0020000000949949026,2.63100004196167
6906.775436018102,1590422.0,-0.008449999615550041,-0.002360000042244792,-0.002360000042244792,2.569999933242798
6906.776435790024,1590423.0,-0.00872000027447939,0.003909999970346689,-0.0007699999841861427,2.447999954223633
6906.777435561948,1590424.0,-0.0083600003272295,0.002360000042244792,-4.999999873689376e-05,2.4539999961853027
6906.77843533387,1590425.0,-0.009519999846816063,-0.00686000008136034,0.004629999864846468,2.4660000801086426
6906.779435105793,1590426.0,-0.010420000180602074,0.0021800000686198473,0.004900000058114529,2.628000020980835
6906.780434877715,1590427.0,-0.010420000180602074,-0.002319999970495701,-0.004089999943971634,2.5239999294281006
6906.781434649638,1590428.0,-0.009429999627172947,-0.003909999970346689,-0.0025400000158697367,2.686000108718872
6906.7824344215605,1590429.0,-0.008179999887943268,0.0016299999551847577,-0.0007300000288523734,2.691999912261963
6906.783434193484,1590430.0,-0.008089999668300152,-0.004900000058114529,-0.002950000111013651,2.6670000553131104
6906.784433965407,1590431.0,-0.010239999741315842,-0.0021800000686198473,0.003809999907389283,2.7070000171661377
6906.785433737329,1590432.0,-0.010870000347495079,0.005270000081509352,0.008539999835193157,2.7799999713897705
6906.786433509252,1590433.0,-0.010239999741315842,-0.0006799999973736703,-0.001449999981559813,2.7279999256134033
6906.787433281174,1590434.0,-0.009069999679923058,-0.00418000016361475,-0.005270000081509352,2.625999927520752
6906.788433053098,1590435.0,-0.008630000054836273,-0.0003600000054575503,-0.006630000192672014,2.747999906539917
6906.78943282502,1590436.0,-0.008089999668300152,-0.006719999946653843,-0.00798999983817339,2.765000104904175
6906.790432596943,1590437.0,-0.005570000037550926,-0.001820000004954636,-0.0020000000949949026,2.796999931335449
6906.791432368866,1590438.0,-0.004129999782890081,0.002360000042244792,-0.006899999920278788,2.7079999446868896
6906.792432140788,1590439.0,-0.0053900000639259815,-0.0036800000816583633,0.000539999979082495,2.875
6906.793431912711,1590440.0,-0.00547999981790781,-0.004449999891221523,-0.0016299999551847577,2.815000057220459
6906.794431684634,1590441.0,-0.004129999782890081,-0.00031999999191612005,-0.005450000055134296,2.88700008392334
6906.795431456557,1590442.0,-0.0037700000684708357,-0.0028200000524520874,0.0,2.8410000801086426
6906.796431228479,1590443.0,-0.0034099998883903027,0.004449999891221523,0.004540000110864639,2.813999891281128
6906.797431000402,1590444.0,-0.0028800000436604023,0.004449999891221523,-0.0063599999994039536,2.7190001010894775
6906.798430772325,1590445.0,-0.003229999914765358,-0.0036800000816583633,-0.0017300000181421638,2.871999979019165
6906.799430544248,1590446.0,-0.003949999809265137,-0.004040000028908253,0.0021299999207258224,2.9110000133514404
6906.800430316171,1590447.0,-0.005570000037550926,-0.000910000002477318,-0.0002699999895412475,2.8459999561309814
6906.801430088093,1590448.0,-0.005929999984800816,-0.0013599999947473407,0.003949999809265137,2.8259999752044678
6906.802429860016,1590449.0,-0.007230000104755163,0.0020000000949949026,0.003449999960139394,2.8459999561309814
6906.803429631938,1590450.0,-0.007369999773800373,-0.00018000000272877514,-0.00535999983549118,2.9719998836517334
6906.804429403862,1590451.0,-0.006289999932050705,0.0030900000128895044,0.0,2.86899995803833
6906.805429175784,1590452.0,-0.005750000011175871,-0.004410000052303076,0.0031799999997019768,3.052000045776367
6906.806428947707,1590453.0,-0.005570000037550926,-0.0025400000158697367,-0.002589999930933118,2.8929998874664307
6906.80742871963,1590454.0,-0.006020000204443932,0.003269999986514449,0.0012700000079348683,2.9110000133514404
6906.808428491552,1590455.0,-0.00674000009894371,0.0027199999894946814,0.0031799999997019768,2.86899995803833
6906.809428263476,1590456.0,-0.0071000000461936,-0.0012700000079348683,-0.003000000026077032,3.115999937057495
6906.810428035398,1590457.0,-0.006200000178068876,0.003449999960139394,0.0024999999441206455,3.049999952316284
6906.811427807321,1590458.0,-0.00547999981790781,-0.005450000055134296,0.00418000016361475,2.947999954223633
6906.812427579243,1590459.0,-0.0048500001430511475,-0.0072200000286102295,-0.003949999809265137,3.069999933242798
6906.813427351166,1590460.0,-0.004310000222176313,0.002360000042244792,-0.002630000002682209,3.0869998931884766
6906.8144271230885,1590461.0,-0.0022499999031424522,-0.001820000004954636,0.007079999893903732,3.1010000705718994
6906.815426895012,1590462.0,-0.0020200000144541264,0.0063599999994039536,-0.0008200000156648457,2.938999891281128
6906.816426666935,1590463.0,-0.0018899999558925629,-0.007269999943673611,-0.01752999983727932,3.0399999618530273
6906.817426438857,1590464.0,-0.0008999999845400453,-0.0027199999894946814,-0.017480000853538513,3.240999937057495
6906.81842621078,1590465.0,-0.00018000000272877514,-0.004360000137239695,-0.0059899999760091305,3.0290000438690186
6906.819425982702,1590466.0,0.0003600000054575503,-0.006180000025779009,0.0015399999683722854,3.0139999389648438
6906.820425754626,1590467.0,0.00107999995816499,0.0019099999917671084,-0.005179999861866236,3.1679999828338623
6906.821425526548,1590468.0,0.0003600000054575503,-0.004449999891221523,-0.002360000042244792,3.0759999752044678
6906.822425298471,1590469.0,-3.9999998989515007e-05,0.0024500000290572643,-0.0007699999841861427,3.194000005722046
6906.823425070394,1590470.0,-0.0018899999558925629,-0.0015399999683722854,0.006039999891072512,3.2730000019073486
6906.824424842316,1590471.0,-0.0027000000700354576,0.0030900000128895044,-0.001180000021122396,3.313999891281128
6906.825424614239,1590472.0,-0.0024300001095980406,0.00018000000272877514,-0.000539999979082495,3.25600004196167
6906.826424386162,1590473.0,-0.0006699999794363976,-0.004040000028908253,0.005400000140070915,3.1589999198913574
6906.827424158085,1590474.0,0.0006699999794363976,0.004720000084489584,0.005270000081509352,3.2820000648498535
6906.828423930007,1590475.0,0.0014400000218302011,0.0003600000054575503,0.004809999838471413,3.302000045776367
6906.82942370193,1590476.0,0.0023399998899549246,-0.004540000110864639,-0.003269999986514449,3.1679999828338623
6906.830423473853,1590477.0,0.0031900000758469105,-0.0022700000554323196,0.0024500000290572643,3.1480000019073486
6906.831423245776,1590478.0,0.004490000195801258,0.0027199999894946814,0.00018000000272877514,3.316999912261963
6906.832423017699,1590479.0,0.005929999984800816,-0.003220000071451068,-0.006990000139921904,3.365999937057495
6906.833422789621,1590480.0,0.006060000043362379,0.002360000042244792,-0.004900000058114529,3.177000045776367
6906.834422561544,1590481.0,0.006060000043362379,-0.005040000192821026,0.007180000189691782,3.2679998874664307
6906.835422333466,1590482.0,0.005929999984800816,-0.00535999983549118,0.0017300000181421638,3.375
6906.83642210539,1590483.0,0.005750000011175871,0.004089999943971634,-0.003220000071451068,3.4609999656677246
6906.837421877312,1590484.0,0.0053900000639259815,0.0020000000949949026,-0.00044999999227002263,3.4670000076293945
6906.838421649235,1590485.0,0.004490000195801258,0.0006799999973736703,-0.014349999837577343,3.2709999084472656
6906.839421421158,1590486.0,0.004579999949783087,0.001769999973475933,-0.007040000054985285,3.510999917984009
6906.84042119308,1590487.0,0.004220000002533197,-0.007269999943673611,-0.0024999999441206455,3.4159998893737793
6906.841420965004,1590488.0,0.004220000002533197,-0.00798999983817339,-0.0020000000949949026,3.496999979019165
6906.842420736926,1590489.0,0.004989999812096357,0.002090000081807375,-0.00044999999227002263,3.4240000247955322
6906.843420508849,1590490.0,0.005210000090301037,0.001180000021122396,-0.00018000000272877514,3.3580000400543213
6906.844420280771,1590491.0,0.0053900000639259815,0.0007699999841861427,-0.0024500000290572643,3.4730000495910645
6906.845420052694,1590492.0,0.005570000037550926,0.001449999981559813,-0.002630000002682209,3.3329999446868896
6906.8464198246165,1590493.0,0.004579999949783087,-0.0024500000290572643,-0.001820000004954636,3.4519999027252197
6906.84741959654,1590494.0,0.0031900000758469105,-0.0024999999441206455,0.0062699997797608376,3.3570001125335693
6906.848419368463,1590495.0,0.003229999914765358,0.00031999999191612005,0.001449999981559813,3.513000011444092
6906.849419140385,1590496.0,0.004310000222176313,0.0036800000816583633,-0.0059899999760091305,3.563999891281128
6906.850418912308,1590497.0,0.005710000172257423,0.0030900000128895044,0.00018000000272877514,3.450000047683716
6906.851418684231,1590498.0,0.007009999826550484,-0.005810000002384186,0.001820000004954636,3.5920000076293945
6906.852418456154,1590499.0,0.006649999879300594,0.000910000002477318,-0.0036299999337643385,3.5920000076293945
6906.853418228076,1590500.0,0.004129999782890081,-0.0003600000054575503,0.0024500000290572643,3.571000099182129
6906.854417999999,1590501.0,0.0030499999411404133,-0.005859999917447567,0.0063599999994039536,3.499000072479248
6906.855417771922,1590502.0,0.0018899999558925629,0.0010000000474974513,0.0002699999895412475,3.5220000743865967
6906.856417543844,1590503.0,0.0014400000218302011,-0.0015399999683722854,0.0019099999917671084,3.696000099182129
6906.857417315768,1590504.0,0.0015300000086426735,-0.0021299999207258224,0.0016799999866634607,3.6440000534057617
6906.85841708769,1590505.0,0.0020699999295175076,0.0014100000262260437,-0.004900000058114529,3.562999963760376
6906.859416859613,1590506.0,0.003229999914765358,-0.004809999838471413,0.0020000000949949026,3.5
6906.860416631535,1590507.0,0.004989999812096357,-0.007269999943673611,-0.000910000002477318,3.6679999828338623
6906.861416403458,1590508.0,0.00674000009894371,0.0031799999997019768,-9.000000136438757e-05,3.6760001182556152
6906.862416175381,1590509.0,0.008449999615550041,-0.006899999920278788,0.003909999970346689,3.555000066757202
6906.863415947304,1590510.0,0.009069999679923058,-0.003949999809265137,0.005090000107884407,3.6740000247955322
6906.864415719227,1590511.0,0.008980000391602516,0.002360000042244792,0.00535999983549118,3.803999900817871
6906.865415491149,1590512.0,0.009069999679923058,0.002090000081807375,0.005270000081509352,3.7720000743865967
6906.866415263072,1590513.0,0.0088900001719594,-0.007449999917298555,-0.004540000110864639,3.638000011444092
6906.867415034994,1590514.0,0.008449999615550041,-0.005270000081509352,-0.004540000110864639,3.624000072479248
6906.868414806918,1590515.0,0.00674000009894371,-0.0062699997797608376,-0.013439999893307686,3.7230000495910645
6906.86941457884,1590516.0,0.005929999984800816,0.003809999907389283,-0.012900000438094139,3.859999895095825
6906.870414350763,1590517.0,0.005929999984800816,-0.002319999970495701,-0.005270000081509352,3.7720000743865967
6906.871414122686,1590518.0,0.00547999981790781,0.004540000110864639,-0.005040000192821026,3.802000045776367
6906.872413894608,1590519.0,0.004310000222176313,0.0021800000686198473,-0.003809999907389283,3.888000011444092
6906.873413666532,1590520.0,0.0027000000700354576,-0.004089999943971634,0.0,3.7780001163482666
6906.874413438454,1590521.0,0.004670000169426203,0.0035000001080334187,0.00418000016361475,3.9030001163482666
6906.875413210377,1590522.0,0.010239999741315842,-0.005630000028759241,0.0012700000079348683,3.8540000915527344
6906.876412982299,1590523.0,0.01257999986410141,-0.007540000136941671,-0.004269999917596579,3.8510000705718994
6906.877412754222,1590524.0,0.0142000000923872,0.002360000042244792,0.006810000166296959,3.7899999618530273
6906.8784125261445,1590525.0,0.017430000007152557,-4.999999873689376e-05,0.007809999864548445,3.7660000324249268
6906.879412298068,1590526.0,0.020309999585151672,0.0003600000054575503,-0.001500000013038516,3.9000000953674316
6906.880412069991,1590527.0,0.022460000589489937,0.0021800000686198473,-0.003269999986514449,3.756999969482422
6906.881411841913,1590528.0,0.022910000756382942,-0.005950000137090683,-0.00044999999227002263,3.937000036239624
6906.882411613836,1590529.0,0.019859999418258667,-0.0015399999683722854,-0.0022299999836832285,3.747999906539917
6906.883411385759,1590530.0,0.016259999945759773,0.00018000000272877514,-0.001180000021122396,3.944000005722046
6906.884411157682,1590531.0,0.01131999958306551,0.004809999838471413,0.0006799999973736703,3.9639999866485596
6906.885410929604,1590532.0,0.006200000178068876,0.0031799999997019768,-0.001180000021122396,3.9119999408721924
6906.886410701527,1590533.0,0.00215999991632998,-0.0027199999894946814,-0.005040000192821026,4.059000015258789
6906.88741047345,1590534.0,-0.00018000000272877514,-0.0052200001664459705,-0.006630000192672014,3.997999906539917
6906.888410245372,1590535.0,-9.000000136438757e-05,0.00018000000272877514,0.003449999960139394,4.1020002365112305
6906.889410017296,1590536.0,0.0007600000244565308,-0.004089999943971634,-0.0016299999551847577,4.033999919891357
6906.890409789218,1590537.0,0.0017099999822676182,0.0007300000288523734,-0.006719999946653843,3.937000036239624
6906.891409561141,1590538.0,0.0033199999015778303,0.001180000021122396,-0.003809999907389283,4.021999835968018
6906.892409333063,1590539.0,0.005210000090301037,-0.007180000189691782,-0.004999999888241291,3.9260001182556152
6906.893409104986,1590540.0,0.007009999826550484,-0.0027199999894946814,-0.00018000000272877514,4.006999969482422
6906.894408876909,1590541.0,0.008799999952316284,0.00041000000783242285,0.007449999917298555,3.9030001163482666
6906.895408648832,1590542.0,0.008980000391602516,-0.001820000004954636,-0.001180000021122396,4.063000202178955
6906.896408420755,1590543.0,0.009610000066459179,0.002090000081807375,0.0024999999441206455,4.109000205993652
6906.897408192677,1590544.0,0.00773000018671155,-9.000000136438757e-05,0.001500000013038516,3.924999952316284
6906.8984079646,1590545.0,0.004399999976158142,-0.005630000028759241,0.00749000022187829,4.001999855041504
6906.899407736522,1590546.0,0.0027000000700354576,0.0021800000686198473,0.007079999893903732,4.107999801635742
6906.900407508446,1590547.0,0.0016199999954551458,0.001449999981559813,-0.003269999986514449,3.994999885559082
6906.901407280368,1590548.0,0.0018899999558925629,-0.0027199999894946814,0.005270000081509352,4.156000137329102
6906.902407052291,1590549.0,0.0016599999507889152,-0.004089999943971634,0.007079999893903732,4.156000137329102
6906.903406824214,1590550.0,0.001979999942705035,-0.0030900000128895044,0.004360000137239695,4.044000148773193
6906.904406596136,1590551.0,0.0017999999690800905,-0.000539999979082495,-0.0028200000524520874,4.2129998207092285
6906.90540636806,1590552.0,0.0014799999771639705,-0.003590000094845891,-0.006990000139921904,4.256999969482422
6906.906406139982,1590553.0,0.0012100000167265534,0.0013599999947473407,-0.008489999920129776,4.223999977111816
6906.907405911905,1590554.0,0.0030499999411404133,-0.004720000084489584,-0.004679999779909849,4.107999801635742
6906.908405683827,1590555.0,0.003229999914765358,-0.00418000016361475,-0.0027199999894946814,4.098999977111816
6906.90940545575,1590556.0,0.0037700000684708357,0.00018000000272877514,-0.00044999999227002263,4.254000186920166
6906.910405227673,1590557.0,0.003640000009909272,0.0025400000158697367,-0.007079999893903732,4.323999881744385
6906.911404999596,1590558.0,0.004490000195801258,-0.006990000139921904,-0.0051299999468028545,4.250999927520752
6906.912404771519,1590559.0,0.0052999998442828655,0.0012700000079348683,0.004809999838471413,4.294000148773193
6906.913404543441,1590560.0,0.006020000204443932,0.003860000055283308,0.006810000166296959,4.381999969482422
6906.914404315364,1590561.0,0.006020000204443932,-0.0003600000054575503,0.0059899999760091305,4.197999954223633
6906.915404087287,1590562.0,0.006649999879300594,0.005270000081509352,-0.001449999981559813,4.290999889373779
6906.91640385921,1590563.0,0.008220000192523003,-0.0020000000949949026,-0.006949999835342169,4.357999801635742
6906.917403631132,1590564.0,0.009159999899566174,-0.0029100000392645597,0.001180000021122396,4.169000148773193
6906.918403403055,1590565.0,0.009340000338852406,-0.007269999943673611,-0.00913000013679266,4.3520002365112305
6906.919403174978,1590566.0,0.008310000412166119,0.003220000071451068,-0.003000000026077032,4.335000038146973
6906.9204029469,1590567.0,0.00773000018671155,0.00418000016361475,0.0020000000949949026,4.427999973297119
6906.921402718824,1590568.0,0.00646999990567565,-0.0024500000290572643,-0.0027199999894946814,4.369999885559082
6906.922402490746,1590569.0,0.005929999984800816,-0.005900000222027302,-0.0006799999973736703,4.375999927520752
6906.923402262669,1590570.0,0.005929999984800816,-0.0007300000288523734,-0.002589999930933118,4.36899995803833
6906.924402034591,1590571.0,0.006289999932050705,-0.003269999986514449,-0.006219999864697456,4.290999889373779
6906.925401806514,1590572.0,0.007550000213086605,0.003539999946951866,0.0013599999947473407,4.236000061035156
6906.926401578437,1590573.0,0.009159999899566174,-0.0007300000288523734,-0.002360000042244792,4.5289998054504395
6906.92740135036,1590574.0,0.009390000253915787,-0.00418000016361475,-0.005270000081509352,4.427999973297119
6906.928401122283,1590575.0,0.009340000338852406,-0.0016299999551847577,0.004900000058114529,4.244999885559082
6906.929400894205,1590576.0,0.009069999679923058,0.004000000189989805,0.00018000000272877514,4.500999927520752
6906.930400666128,1590577.0,0.008220000192523003,-0.00418000016361475,0.005450000055134296,4.5229997634887695
6906.93140043805,1590578.0,0.007499999832361937,0.003220000071451068,0.004900000058114529,4.394999980926514
6906.932400209974,1590579.0,0.008089999668300152,-0.006899999920278788,-0.002360000042244792,4.478000164031982
6906.933399981896,1590580.0,0.0088900001719594,-0.004360000137239695,-0.004000000189989805,4.488999843597412
6906.934399753819,1590581.0,0.0088900001719594,0.00044999999227002263,-0.004540000110864639,4.375999927520752
6906.935399525742,1590582.0,0.008670000359416008,0.005090000107884407,0.0012700000079348683,4.510000228881836
6906.936399297665,1590583.0,0.00872000027447939,-0.0019099999917671084,0.0015399999683722854,4.540999889373779
6906.937399069588,1590584.0,0.010060000233352184,-0.0024500000290572643,0.004360000137239695,4.625999927520752
6906.93839884151,1590585.0,0.009789999574422836,-0.005770000163465738,-0.002950000111013651,4.3460001945495605
6906.939398613433,1590586.0,0.008449999615550041,-0.0017300000181421638,-0.0036299999337643385,4.465000152587891
6906.940398385355,1590587.0,0.006380000151693821,0.002090000081807375,-0.0027199999894946814,4.644999980926514
6906.941398157278,1590588.0,0.004220000002533197,0.002360000042244792,-0.0024500000290572643,4.486000061035156
6906.942397929201,1590589.0,0.0027000000700354576,-0.0017300000181421638,0.0027199999894946814,4.440000057220459
6906.943397701124,1590590.0,0.002520000096410513,-0.0017300000181421638,0.002360000042244792,4.473999977111816
6906.944397473047,1590591.0,0.0030499999411404133,-0.004089999943971634,0.006539999973028898,4.578000068664551
6906.945397244969,1590592.0,0.0035500000230968,-0.00044999999227002263,-0.0027199999894946814,4.659999847412109
6906.946397016892,1590593.0,0.0053900000639259815,0.005679999943822622,-0.0027199999894946814,4.625999927520752
6906.947396788815,1590594.0,0.005969999823719263,-0.0027199999894946814,-0.005450000055134296,4.636000156402588
6906.948396560738,1590595.0,0.006060000043362379,-0.004089999943971634,-0.005040000192821026,4.669000148773193
6906.94939633266,1590596.0,0.006380000151693821,0.000539999979082495,-0.003449999960139394,4.7210001945495605
6906.950396104583,1590597.0,0.007280000019818544,-0.004900000058114529,-0.00018000000272877514,4.673999786376953
6906.951395876506,1590598.0,0.006649999879300594,-0.000910000002477318,0.003449999960139394,4.697000026702881
6906.952395648428,1590599.0,0.007369999773800373,0.0021299999207258224,-0.005900000222027302,4.607999801635742
6906.953395420352,1590600.0,0.008449999615550041,-0.003719999920576811,-0.00686000008136034,4.619999885559082
6906.954395192274,1590601.0,0.008630000054836273,-0.004040000028908253,-0.007360000163316727,4.540999889373779
6906.955394964197,1590602.0,0.009069999679923058,0.0021800000686198473,-0.002589999930933118,4.7179999351501465
6906.956394736119,1590603.0,0.009159999899566174,-0.003000000026077032,0.004310000222176313,4.625999927520752
6906.957394508042,1590604.0,0.009519999846816063,-0.0028200000524520874,0.003449999960139394,4.8429999351501465
6906.958394279965,1590605.0,0.008980000391602516,0.001820000004954636,0.00018000000272877514,4.77400016784668
6906.959394051888,1590606.0,0.0088900001719594,-0.005630000028759241,-0.000859999970998615,4.749000072479248
6906.960393823811,1590607.0,0.007819999940693378,-0.004000000189989805,0.005270000081509352,4.757999897003174
6906.961393595733,1590608.0,0.0071000000461936,-0.002090000081807375,-0.006219999864697456,4.802999973297119
6906.962393367656,1590609.0,0.006020000204443932,-0.002950000111013651,-0.000910000002477318,4.815999984741211
6906.963393139578,1590610.0,0.00547999981790781,0.0016299999551847577,0.0059899999760091305,4.798999786376953
6906.964392911502,1590611.0,0.0052999998442828655,-0.0007300000288523734,0.005859999917447567,4.800000190734863
6906.965392683424,1590612.0,0.00610999995842576,0.002360000042244792,0.002589999930933118,4.7179999351501465
6906.966392455347,1590613.0,0.00674000009894371,-0.003809999907389283,-0.002859999891370535,4.6620001792907715
6906.96739222727,1590614.0,0.005210000090301037,-0.004449999891221523,0.000910000002477318,4.8429999351501465
6906.968391999193,1590615.0,0.004310000222176313,0.0003600000054575503,-0.0036299999337643385,4.6570000648498535
6906.969391771116,1590616.0,0.005030000116676092,0.00031999999191612005,-0.0020000000949949026,4.840000152587891
6906.970391543038,1590617.0,0.005929999984800816,0.0027199999894946814,0.001820000004954636,4.677999973297119
6906.971391314961,1590618.0,0.007410000078380108,0.000539999979082495,0.0012700000079348683,4.77400016784668
6906.972391086883,1590619.0,0.009340000338852406,-0.005489999894052744,0.005270000081509352,4.888999938964844
6906.973390858806,1590620.0,0.010060000233352184,-0.002360000042244792,-0.002319999970495701,4.961999893188477
6906.974390630729,1590621.0,0.0101500004529953,0.00018000000272877514,-0.001500000013038516,4.901000022888184
6906.975390402652,1590622.0,0.00872000027447939,0.0031799999997019768,-0.0003600000054575503,4.769999980926514
6906.976390174575,1590623.0,0.007819999940693378,0.005270000081509352,-0.004900000058114529,4.913000106811523
6906.977389946497,1590624.0,0.008129999972879887,-0.0010900000343099236,0.0022299999836832285,4.938000202178955
6906.97838971842,1590625.0,0.006920000072568655,-0.005090000107884407,0.0016799999866634607,4.940999984741211
6906.979389490343,1590626.0,0.005659999791532755,-0.003809999907389283,-0.0022299999836832285,4.860000133514404
6906.980389262266,1590627.0,0.005570000037550926,-0.0063599999994039536,-0.006899999920278788,5.0289998054504395
6906.981389034188,1590628.0,0.007550000213086605,-0.0016299999551847577,-0.008310000412166119,5.005000114440918
6906.982388806111,1590629.0,0.008089999668300152,-0.003719999920576811,-0.017799999564886093,4.9679999351501465
6906.983388578034,1590630.0,0.007369999773800373,-0.0027199999894946814,-0.005539999809116125,4.986999988555908
6906.984388349956,1590631.0,0.007280000019818544,0.003909999970346689,0.0030900000128895044,4.991000175476074
6906.98538812188,1590632.0,0.007639999967068434,-0.0013599999947473407,-0.0015399999683722854,4.901000022888184
6906.986387893802,1590633.0,0.008179999887943268,-0.0029100000392645597,-0.013260000385344028,5.085999965667725
6906.987387665725,1590634.0,0.008799999952316284,0.0,-0.013939999975264072,5.0229997634887695
6906.988387437647,1590635.0,0.009340000338852406,-0.00839999970048666,-0.004900000058114529,5.034999847412109
6906.989387209571,1590636.0,0.010780000127851963,0.000539999979082495,-0.007180000189691782,5.132999897003174
6906.990386981493,1590637.0,0.010420000180602074,-0.00044999999227002263,0.0025400000158697367,5.164000034332275
6906.991386753416,1590638.0,0.00872000027447939,0.0007300000288523734,-0.0024500000290572643,5.072000026702881
6906.992386525339,1590639.0,0.004490000195801258,-0.005539999809116125,0.0002699999895412475,4.995999813079834
6906.993386297261,1590640.0,0.0013500000350177288,0.0010000000474974513,0.0076299998909235,5.182000160217285
6906.994386069184,1590641.0,0.0008999999845400453,-0.006990000139921904,-0.002319999970495701,5.1570000648498535
6906.995385841107,1590642.0,0.0035500000230968,0.004000000189989805,-0.0021800000686198473,5.10099983215332
6906.99638561303,1590643.0,0.003860000055283308,0.000910000002477318,0.005810000002384186,4.934999942779541
6906.997385384952,1590644.0,0.0037700000684708357,0.004000000189989805,0.001449999981559813,5.218999862670898
6906.998385156875,1590645.0,0.0052999998442828655,-0.00418000016361475,-0.0011399999493733048,5.120999813079834
6906.999384928798,1590646.0,0.00773000018671155,-0.00535999983549118,0.004900000058114529,5.065999984741211
6907.000384700721,1590647.0,0.010599999688565731,-0.0025400000158697367,-0.0029100000392645597,5.089000225067139
6907.001384472644,1590648.0,0.012760000303387642,0.001449999981559813,-0.0027199999894946814,5.031000137329102
6907.002384244566,1590649.0,0.013340000063180923,0.002360000042244792,-0.0018599999602884054,5.170000076293945
6907.003384016489,1590650.0,0.012849999591708183,0.0017300000181421638,0.00018000000272877514,4.986999988555908
6907.004383788411,1590651.0,0.011859999969601631,-0.00571999978274107,-0.005090000107884407,5.120999813079834
6907.005383560334,1590652.0,0.01131999958306551,-0.004769999999552965,-0.0006399999838322401,5.190999984741211
6907.006383332257,1590653.0,0.011500000022351742,-0.002950000111013651,-0.006719999946653843,5.224999904632568
6907.00738310418,1590654.0,0.011009999550879002,0.0003600000054575503,-0.003000000026077032,5.3379998207092285
6907.008382876103,1590655.0,0.008799999952316284,0.001820000004954636,0.0016299999551847577,5.084000110626221
6907.009382648025,1590656.0,0.007459999993443489,-4.999999873689376e-05,0.0059899999760091305,5.243000030517578
6907.010382419948,1590657.0,0.007369999773800373,-0.0030900000128895044,0.004999999888241291,5.334000110626221
6907.011382191871,1590658.0,0.00646999990567565,-0.002360000042244792,-0.004540000110864639,5.072000026702881
6907.012381963794,1590659.0,0.005570000037550926,-0.004540000110864639,0.002090000081807375,5.255000114440918
6907.013381735716,1590660.0,0.0037700000684708357,0.0019099999917671084,0.00571999978274107,5.291999816894531
6907.014381507639,1590661.0,0.00215999991632998,0.005630000028759241,-0.0020000000949949026,5.176000118255615
6907.015381279562,1590662.0,-9.000000136438757e-05,-0.0030900000128895044,-0.008990000002086163,5.296000003814697
6907.016381051484,1590663.0,-0.0017099999822676182,-0.003719999920576811,-0.006089999806135893,5.374000072479248
6907.017380823408,1590664.0,-0.002520000096410513,-0.002360000042244792,-0.001449999981559813,5.243000030517578
6907.01838059533,1590665.0,-0.0037700000684708357,0.001180000021122396,0.002360000042244792,5.230999946594238
6907.019380367253,1590666.0,-0.004310000222176313,0.000539999979082495,-0.001180000021122396,5.353000164031982
6907.020380139175,1590667.0,-0.004040000028908253,0.005270000081509352,-0.004000000189989805,5.330999851226807
6907.021379911099,1590668.0,-0.0033199999015778303,-0.003909999970346689,-0.0024500000290572643,5.414000034332275
6907.022379683021,1590669.0,-0.0014799999771639705,-0.002859999891370535,-0.001820000004954636,5.343999862670898
6907.023379454944,1590670.0,-0.0003600000054575503,-0.007809999864548445,-0.01181000005453825,5.458000183105469
6907.024379226867,1590671.0,-0.00018000000272877514,-0.003449999960139394,-0.002090000081807375,5.456999778747559
6907.025378998789,1590672.0,0.0011699999449774623,0.0033599999733269215,0.0010900000343099236,5.303999900817871
6907.026378770712,1590673.0,0.0012600000482052565,-0.0030900000128895044,-0.00018000000272877514,5.466000080108643
6907.027378542635,1590674.0,0.0013500000350177288,-0.0015399999683722854,-0.0011399999493733048,5.388999938964844
6907.028378314558,1590675.0,0.0023399998899549246,0.0027199999894946814,-0.006219999864697456,5.210999965667725
6907.02937808648,1590676.0,0.003280000062659383,-0.0003600000054575503,0.0027199999894946814,5.434999942779541
6907.030377858403,1590677.0,0.004939999897032976,-0.00418000016361475,0.002859999891370535,5.414000034332275
6907.031377630326,1590678.0,0.007009999826550484,-0.0021800000686198473,-0.00418000016361475,5.449999809265137
6907.032377402249,1590679.0,0.008449999615550041,-0.003000000026077032,-0.006810000166296959,5.454999923706055
6907.033377174172,1590680.0,0.007550000213086605,0.002360000042244792,-0.001180000021122396,5.313000202178955
6907.034376946094,1590681.0,0.005840000230818987,-0.0034099998883903027,0.0059899999760091305,5.500999927520752
6907.035376718017,1590682.0,0.0052999998442828655,0.0030900000128895044,-0.001820000004954636,5.39900016784668
6907.036376489939,1590683.0,0.004579999949783087,0.0002699999895412475,-0.000910000002477318,5.381999969482422
6907.037376261862,1590684.0,0.002959999954327941,-0.0051299999468028545,0.005309999920427799,5.307000160217285
6907.038376033785,1590685.0,0.004220000002533197,-0.003909999970346689,0.0027199999894946814,5.53000020980835
6907.039375805708,1590686.0,0.004939999897032976,0.0027199999894946814,-0.001180000021122396,5.506999969482422
6907.040375577631,1590687.0,0.004310000222176313,-9.000000136438757e-05,-0.003719999920576811,5.452000141143799
6907.041375349553,1590688.0,0.004399999976158142,0.001820000004954636,0.0013599999947473407,5.434999942779541
6907.042375121476,1590689.0,0.002959999954327941,-0.004540000110864639,0.0021800000686198473,5.353000164031982
6907.043374893399,1590690.0,0.0028299998957663774,0.0017300000181421638,0.006399999838322401,5.547999858856201
6907.044374665322,1590691.0,0.003949999809265137,-0.0063599999994039536,0.00418000016361475,5.426000118255615
6907.045374437244,1590692.0,0.0048500001430511475,-0.0027199999894946814,0.0007300000288523734,5.611999988555908
6907.046374209167,1590693.0,0.005210000090301037,-0.0029100000392645597,-0.007899999618530273,5.572999954223633
6907.04737398109,1590694.0,0.004670000169426203,-0.003590000094845891,-0.006990000139921904,5.565000057220459
6907.048373753012,1590695.0,0.003949999809265137,-0.000910000002477318,-0.0030900000128895044,5.633999824523926
6907.049373524936,1590696.0,0.003590000094845891,0.001820000004954636,-0.017260000109672546,5.514999866485596
6907.050373296858,1590697.0,0.005210000090301037,-0.004540000110864639,-0.011260000057518482,5.706999778747559
6907.051373068781,1590698.0,0.004939999897032976,0.0012700000079348683,-0.004900000058114529,5.591000080108643
6907.052372840703,1590699.0,0.006649999879300594,0.0003600000054575503,-0.01607999950647354,5.718999862670898
6907.053372612627,1590700.0,0.007009999826550484,-0.005450000055134296,-0.010850000195205212,5.684999942779541
6907.054372384549,1590701.0,0.005929999984800816,0.0012700000079348683,-0.003539999946951866,5.690000057220459
6907.055372156472,1590702.0,0.005210000090301037,0.0025400000158697367,0.0007300000288523734,5.6579999923706055
6907.056371928395,1590703.0,0.004490000195801258,-0.0006399999838322401,0.0076299998909235,5.585000038146973
6907.057371700317,1590704.0,0.004129999782890081,-0.004449999891221523,0.013170000165700912,5.701000213623047
6907.05837147224,1590705.0,0.003860000055283308,-0.003909999970346689,0.00018000000272877514,5.618000030517578
6907.059371244163,1590706.0,0.003860000055283308,0.004720000084489584,0.0064500002190470695,5.603000164031982
6907.060371016086,1590707.0,0.004579999949783087,-0.0030900000128895044,0.004720000084489584,5.5980000495910645
6907.061370788008,1590708.0,0.0033199999015778303,-0.001180000021122396,-0.001180000021122396,5.695000171661377
6907.062370559931,1590709.0,0.0013500000350177288,0.0007300000288523734,-0.004089999943971634,5.52400016784668
6907.063370331854,1590710.0,0.0014400000218302011,-0.003269999986514449,-0.0017300000181421638,5.75600004196167
6907.064370103777,1590711.0,0.0014400000218302011,0.0051299999468028545,-0.004000000189989805,5.605999946594238
6907.0653698757,1590712.0,0.0024300001095980406,-0.0019099999917671084,0.0021800000686198473,5.53000020980835
6907.066369647622,1590713.0,0.0028800000436604023,-0.0018599999602884054,-0.0006799999973736703,5.736999988555908
6907.067369419545,1590714.0,0.002959999954327941,-0.003719999920576811,-0.00018000000272877514,5.695000171661377
6907.068369191467,1590715.0,0.0014400000218302011,0.0062699997797608376,-0.0012700000079348683,5.86899995803833
6907.06936896339,1590716.0,-0.0008099999977275729,-0.006719999946653843,0.0031799999997019768,5.76800012588501
6907.070368735313,1590717.0,-0.000539999979082495,-0.00044999999227002263,0.008539999835193157,5.885000228881836
6907.071368507236,1590718.0,0.0008999999845400453,0.0027199999894946814,-0.003909999970346689,5.796999931335449
6907.072368279159,1590719.0,0.004360000137239695,-0.003809999907389283,-0.005090000107884407,5.730999946594238
6907.073368051081,1590720.0,0.005659999791532755,0.0036299999337643385,-0.00418000016361475,5.9019999504089355
6907.074367823005,1590721.0,0.006649999879300594,-0.003719999920576811,-0.004629999864846468,5.809000015258789
6907.075367594927,1590722.0,0.005929999984800816,-0.004449999891221523,0.004900000058114529,5.7210001945495605
6907.07636736685,1590723.0,0.004579999949783087,0.001500000013038516,-0.006719999946653843,5.650000095367432
6907.077367138772,1590724.0,0.0037700000684708357,0.004000000189989805,-0.007809999864548445,5.859000205993652
6907.078366910695,1590725.0,0.00215999991632998,-0.003809999907389283,0.0006799999973736703,5.841000080108643
6907.079366682618,1590726.0,0.0012600000482052565,0.0012700000079348683,0.0030900000128895044,5.682000160217285
6907.080366454541,1590727.0,0.0012600000482052565,-0.002859999891370535,0.003539999946951866,5.857999801635742
6907.081366226464,1590728.0,0.0017999999690800905,-0.004900000058114529,-0.000910000002477318,5.861000061035156
6907.082365998386,1590729.0,0.0027000000700354576,0.003590000094845891,0.001449999981559813,6.0
6907.083365770309,1590730.0,0.001979999942705035,-0.0007300000288523734,0.00018000000272877514,5.942999839782715
6907.084365542231,1590731.0,0.0024300001095980406,-0.0015399999683722854,-0.010350000113248825,5.706999778747559
6907.085365314155,1590732.0,0.002959999954327941,-0.000859999970998615,-0.0030900000128895044,5.859000205993652
6907.086365086077,1590733.0,0.0034099998883903027,0.003860000055283308,0.0025400000158697367,6.01200008392334
6907.087364858,1590734.0,0.0035000001080334187,0.004089999943971634,-0.0017300000181421638,5.736999988555908
6907.088364629923,1590735.0,0.0031399999279528856,0.003590000094845891,-0.0007300000288523734,6.014999866485596
6907.089364401845,1590736.0,0.0030499999411404133,-0.006539999973028898,-9.000000136438757e-05,5.920000076293945
6907.090364173768,1590737.0,0.0034099998883903027,-0.005040000192821026,-0.005179999861866236,6.026000022888184
6907.091363945691,1590738.0,0.0035000001080334187,-0.000910000002477318,-0.004900000058114529,5.9720001220703125
6907.092363717614,1590739.0,0.004220000002533197,-0.0007300000288523734,-0.0002699999895412475,5.960000038146973
6907.093363489536,1590740.0,0.006200000178068876,-0.0015399999683722854,-0.0003600000054575503,6.020999908447266
6907.094363261459,1590741.0,0.005570000037550926,0.00041000000783242285,0.000910000002477318,5.916999816894531
6907.095363033382,1590742.0,0.0017099999822676182,-0.004540000110864639,-0.0007300000288523734,5.9079999923706055
6907.096362805305,1590743.0,0.00215999991632998,-0.003000000026077032,-0.0019099999917671084,5.98799991607666
6907.097362577228,1590744.0,0.0048500001430511475,0.00031999999191612005,-0.003809999907389283,5.78000020980835
6907.09836234915,1590745.0,0.007189999800175428,-0.001180000021122396,-0.003000000026077032,5.966000080108643
6907.099362121073,1590746.0,0.0088900001719594,0.0027199999894946814,0.0027199999894946814,6.03000020980835
6907.100361892995,1590747.0,0.008940000087022781,-0.0007699999841861427,0.0010000000474974513,6.014999866485596
6907.101361664918,1590748.0,0.008670000359416008,-0.005900000222027302,-0.002360000042244792,6.056000232696533
6907.102361436841,1590749.0,0.00773000018671155,-0.0019099999917671084,0.009630000218749046,5.951000213623047
6907.103361208764,1590750.0,0.006649999879300594,-0.004629999864846468,0.003269999986514449,6.1539998054504395
6907.104360980687,1590751.0,0.0053900000639259815,0.0024500000290572643,-0.0029100000392645597,6.052999973297119
6907.105360752609,1590752.0,0.0037700000684708357,-0.000910000002477318,0.004809999838471413,6.122000217437744
6907.106360524533,1590753.0,0.002520000096410513,-0.004089999943971634,-0.004900000058114529,6.195000171661377
6907.107360296455,1590754.0,0.0017500000540167093,0.000910000002477318,-0.007400000002235174,6.122000217437744
6907.108360068378,1590755.0,0.0026100000832229853,-0.00418000016361475,-0.005539999809116125,6.093999862670898
6907.1093598403,1590756.0,0.001979999942705035,0.0010000000474974513,0.00535999983549118,5.913000106811523
6907.110359612223,1590757.0,0.001979999942705035,9.000000136438757e-05,0.0033599999733269215,6.065000057220459
6907.1113593841455,1590758.0,0.0016199999954551458,0.0030900000128895044,-0.003809999907389283,6.059000015258789
6907.112359156069,1590759.0,0.0012600000482052565,-0.005179999861866236,-0.006089999806135893,6.052000045776367
6907.113358927992,1590760.0,0.0,-0.0020000000949949026,-0.002630000002682209,6.020999908447266
6907.114358699914,1590761.0,-0.0016199999954551458,-0.002090000081807375,-0.003220000071451068,6.223999977111816
6907.115358471837,1590762.0,-0.0018400000408291817,0.0024500000290572643,0.000910000002477318,6.133999824523926
6907.116358243759,1590763.0,-0.0017999999690800905,0.0045900000259280205,0.010540000163018703,6.0
6907.117358015683,1590764.0,-0.0015300000086426735,-0.003000000026077032,0.004629999864846468,5.9629998207092285
6907.118357787605,1590765.0,-0.0008099999977275729,-0.005179999861866236,-0.0028200000524520874,6.171000003814697
6907.119357559528,1590766.0,-0.0004900000058114529,0.0024500000290572643,-0.005450000055134296,6.177000045776367
6907.120357331451,1590767.0,-0.000539999979082495,-0.00418000016361475,-0.009259999729692936,6.2230000495910645
6907.121357103373,1590768.0,-0.0002699999895412475,0.001449999981559813,-0.005770000163465738,6.122000217437744
6907.122356875296,1590769.0,-0.0008099999977275729,0.006899999920278788,-0.0010900000343099236,6.25600004196167
6907.123356647219,1590770.0,-0.000539999979082495,0.0028200000524520874,-0.013439999893307686,6.328999996185303
6907.124356419142,1590771.0,-0.0003100000030826777,-0.00686000008136034,-0.008539999835193157,6.310999870300293
6907.125356191064,1590772.0,-0.0008999999845400453,-0.004629999864846468,0.004629999864846468,6.133999824523926
6907.126355962987,1590773.0,-3.9999998989515007e-05,-0.003449999960139394,0.005270000081509352,6.316999912261963
6907.12735573491,1590774.0,0.0014400000218302011,0.004269999917596579,-0.0019099999917671084,6.24399995803833
6907.128355506833,1590775.0,0.0027000000700354576,0.002950000111013651,0.003000000026077032,6.201000213623047
6907.129355278756,1590776.0,0.004000000189989805,0.0012700000079348683,-0.007180000189691782,6.210000038146973
6907.130355050678,1590777.0,0.004670000169426203,-0.005810000002384186,-0.005859999917447567,6.201000213623047
6907.131354822601,1590778.0,0.004939999897032976,-0.0033599999733269215,-0.0021800000686198473,6.26200008392334
6907.132354594523,1590779.0,0.0031399999279528856,-0.0012700000079348683,-0.001449999981559813,6.2129998207092285
6907.133354366447,1590780.0,0.0027000000700354576,0.002090000081807375,-0.010350000113248825,6.418000221252441
6907.134354138369,1590781.0,0.0017999999690800905,0.0024999999441206455,-0.009850000031292439,6.116000175476074
6907.135353910292,1590782.0,0.00215999991632998,-0.0008200000156648457,-0.01181000005453825,6.34499979019165
6907.136353682215,1590783.0,0.0027000000700354576,-0.003449999960139394,-0.0010000000474974513,6.320000171661377
6907.137353454137,1590784.0,0.0037700000684708357,-0.004720000084489584,0.0031799999997019768,6.447000026702881
6907.138353226061,1590785.0,0.0037700000684708357,0.003269999986514449,0.005400000140070915,6.34499979019165
6907.139352997983,1590786.0,0.004129999782890081,-0.00044999999227002263,0.004540000110864639,6.125999927520752
6907.140352769906,1590787.0,0.004220000002533197,-0.002630000002682209,-0.004449999891221523,6.324999809265137
6907.141352541828,1590788.0,0.0029200001154094934,0.00018000000272877514,-0.0036299999337643385,6.34499979019165
6907.142352313751,1590789.0,0.0018899999558925629,-0.00418000016361475,0.0015399999683722854,6.372000217437744
6907.1433520856735,1590790.0,0.0006699999794363976,-0.005270000081509352,0.00018000000272877514,6.281000137329102
6907.144351857597,1590791.0,-0.000539999979082495,0.004360000137239695,0.0020000000949949026,6.47599983215332
6907.14535162952,1590792.0,-0.00018000000272877514,-0.003809999907389283,0.006180000025779009,6.38700008392334
6907.146351401442,1590793.0,0.0006699999794363976,0.0012700000079348683,0.0006799999973736703,6.5
6907.147351173365,1590794.0,0.0023399998899549246,0.0031799999997019768,0.004269999917596579,6.460999965667725
6907.148350945287,1590795.0,0.002959999954327941,-0.003539999946951866,0.004000000189989805,6.367000102996826
6907.149350717211,1590796.0,0.0034099998883903027,0.0006799999973736703,-0.002360000042244792,6.421999931335449
6907.150350489133,1590797.0,0.003640000009909272,-0.002360000042244792,-0.00044999999227002263,6.451000213623047
6907.151350261056,1590798.0,0.003229999914765358,-0.004129999782890081,0.001820000004954636,6.354000091552734
6907.152350032979,1590799.0,0.00215999991632998,-0.003449999960139394,0.004089999943971634,6.324999809265137
6907.153349804901,1590800.0,0.0016199999954551458,0.003949999809265137,0.002630000002682209,6.26800012588501
6907.154349576824,1590801.0,0.001979999942705035,0.004000000189989805,0.005539999809116125,6.2729997634887695
6907.155349348747,1590802.0,0.0023399998899549246,0.0031799999997019768,0.001449999981559813,6.414999961853027
6907.15634912067,1590803.0,0.0020200000144541264,-0.00418000016361475,0.0002699999895412475,6.515999794006348
6907.157348892592,1590804.0,0.002520000096410513,-0.0029100000392645597,-0.007269999943673611,6.26800012588501
6907.158348664515,1590805.0,0.003280000062659383,-0.005859999917447567,-0.005539999809116125,6.47599983215332
6907.159348436438,1590806.0,0.0035500000230968,0.003909999970346689,-0.0083600003272295,6.489999771118164
6907.160348208361,1590807.0,0.0035500000230968,0.002090000081807375,-0.02434000000357628,6.47599983215332
6907.161347980284,1590808.0,0.004310000222176313,-0.0007300000288523734,-0.01816999912261963,6.328999996185303
6907.162347752206,1590809.0,0.0048500001430511475,-0.003719999920576811,-0.004449999891221523,6.5929999351501465
6907.163347524129,1590810.0,0.004490000195801258,0.000910000002477318,0.002630000002682209,6.519000053405762
6907.164347296051,1590811.0,0.004399999976158142,-0.0059899999760091305,0.01071999967098236,6.5320000648498535
6907.165347067975,1590812.0,0.004579999949783087,0.0031300000846385956,0.007180000189691782,6.539999961853027
6907.166346839897,1590813.0,0.004310000222176313,0.0014100000262260437,0.0024999999441206455,6.644000053405762
6907.16734661182,1590814.0,0.004310000222176313,0.0012700000079348683,-0.003449999960139394,6.579999923706055
6907.168346383743,1590815.0,0.004220000002533197,-0.00571999978274107,-0.0062699997797608376,6.51200008392334
